736034 61.635136 61.702814 60.629636 61.258075 4.623360e+05
736035 61.596463 62.031539 61.132388 61.451441 3.020363e+05
736036 61.325752 61.615800 60.774663 61.006698 2.290410e+05
736039 61.325752 61.876842 61.219401 61.673810 1.873708e+05
736040 61.538455 61.809164 60.494281 61.499781 3.244667e+05
736041 61.383763 62.398929 61.132387 61.828502 4.444498e+05
736042 61.615800 62.002528 61.093713 61.528785 2.867605e+05
736043 61.615799 61.818831 61.113049 61.132386 5.882167e+05
736046 61.248404 61.780162 60.948691 61.287078 3.200193e+05
736047 61.161390 61.673810 61.045372 61.393430 4.612725e+05
736048 61.325752 61.789828 60.784328 60.890680 3.345217e+05
736049 60.735988 61.074375 60.629636 60.890680 2.457671e+05
736050 60.939021 61.219402 60.687647 61.084046 1.575926e+05
736053 61.306416 61.857506 61.161390 61.586796 2.546619e+05
736054 61.161390 61.683477 61.113050 61.412767 3.380023e+05
736055 61.470777 61.712484 60.735988 61.538455 3.899208e+05
736056 61.403095 61.722150 60.871342 61.055042 3.351985e+05
736060 60.832669 61.325752 60.677977 61.277412 3.800592e+05
736061 61.200063 61.393429 60.900350 61.016368 1.521784e+05
736062 61.026035 61.393430 60.764991 61.316082 1.784760e+05
736063 61.190397 61.354755 60.774662 61.229071 1.849537e+05
736064 61.335419 61.461107 61.084045 61.383763 3.055169e+05
736067 60.958357 61.557788 60.919683 61.325752 3.319113e+05
736068 61.364426 61.615800 61.045372 61.200064 3.102544e+05
736069 61.470778 61.490110 60.823003 60.910017 2.391927e+05
736070 61.219401 61.412766 60.745658 60.919683 3.676838e+05
736071 60.639307 60.900351 59.923855 60.755325 3.005861e+05
736074 60.977695 61.161390 60.648974 60.726321 2.901444e+05
736075 61.026035 61.180727 60.426604 60.639307 2.280742e+05
736076 60.600633 61.364426 60.368594 60.793999 1.635869e+05
736077 60.619970 61.016368 60.619970 60.852006 2.802828e+05
736078 61.055042 61.335419 60.561958 61.190397 2.732249e+05
736081 61.549715 61.753650 60.743682 60.976753 4.772094e+05
736082 60.908775 61.229243 60.646572 60.967040 2.467621e+05
736083 60.831083 60.928198 60.326100 60.743682 2.491899e+05
736084 60.355236 60.976753 60.209565 60.277544 3.956351e+05
736085 62.394590 63.054953 61.190397 62.200369 1.326553e+06
736088 62.481987 63.103512 62.054700 62.112964 8.953745e+05
736089 61.899320 62.229502 61.054441 61.180688 6.401636e+05
736090 61.277798 61.510869 60.801951 61.277798 6.223921e+05
736091 61.200110 61.306935 60.908775 61.180688 6.792027e+05
736092 61.860474 61.860474 61.132132 61.336067 5.075084e+05
736095 61.151555 61.384622 61.083577 61.238956 4.869206e+05
736096 61.064154 61.870183 60.578593 61.675958 4.232150e+05
736097 62.122677 62.637371 62.122677 62.472282 5.839357e+05
736098 62.763613 63.530801 62.763613 63.326866 6.921187e+05
736099 63.326866 63.501668 63.006394 63.317153 2.074317e+05
736102 63.239469 63.938670 63.084086 63.763876 2.137440e+05
736103 63.831854 64.395100 63.734736 64.181451 3.053208e+05
736104 64.181451 64.239724 63.404558 63.569647 1.656734e+05
736105 63.355999 63.375425 62.685930 63.045240 4.129211e+05
736106 62.880152 63.132645 62.472282 62.637371 3.045439e+05
736110 62.617951 62.773327 61.841051 62.122677 2.783236e+05
736111 62.171230 62.685931 61.996431 62.617952 2.513264e+05
736112 62.540260 62.831592 62.229501 62.627657 2.661845e+05
736113 62.773327 62.977262 61.811919 61.928452 2.208332e+05
736116 62.171229 62.414009 61.481736 62.054699 3.944698e+05
736117 61.986720 62.763613 61.637115 62.103254 2.937644e+05
736118 62.394590 62.695636 62.103255 62.287766 5.174138e+05
736119 61.909029 62.394590 61.695381 62.074118 1.839305e+05
736120 61.928452 62.462569 61.617694 62.423723 3.354255e+05
736123 62.384877 62.666503 61.724517 61.909029 3.237721e+05
736124 61.909028 62.472281 61.743939 62.297479 3.564989e+05
736125 62.443149 62.695636 62.200369 62.384877 2.572502e+05
736126 62.375171 62.948130 62.355744 62.909284 2.182111e+05
736127 62.637370 62.880151 62.287765 62.715062 2.405469e+05
736130 62.210074 62.423722 61.782782 62.414009 3.200818e+05
736131 62.452855 63.880405 62.151809 63.025821 5.622796e+05
736132 63.006394 63.122931 62.278052 62.938416 2.977460e+05
736133 63.074372 63.453109 62.627657 63.385131 2.043241e+05
736134 63.414271 63.928965 63.161777 63.404558 4.488526e+05
736137 63.744449 63.744449 63.258888 63.608493 2.292819e+05
736138 63.676472 63.734736 62.938417 63.297734 3.699975e+05
736139 63.239470 63.423978 62.511128 62.588812 1.836392e+05
736140 62.812173 63.210329 62.180942 62.423723 3.156147e+05
736141 62.540261 62.763614 62.210076 62.617952 2.927933e+05
736144 62.297480 62.695636 61.841051 61.899320 2.549195e+05
736145 62.219789 62.443150 61.782783 61.928452 4.643906e+05
736146 62.287766 62.520834 61.899320 62.006140 4.215641e+05
736147 62.268347 62.404303 61.724517 61.947875 1.927677e+05
736151 61.617693 62.142100 61.345776 61.996430 2.230667e+05
736152 61.899320 62.501414 61.607980 62.443149 2.551138e+05
736153 62.044985 62.530546 61.423468 61.607980 3.406696e+05
736154 62.044986 62.190656 61.423468 61.578848 3.501866e+05
736155 62.112964 62.588812 61.675958 61.841051 1.684897e+05
736158 61.938162 62.491700 61.938162 62.404303 2.544340e+05
736159 62.171229 62.433436 61.947875 62.093541 2.952211e+05
736160 62.035276 62.423722 61.792495 62.093541 2.616203e+05
736161 62.365457 62.685930 62.268347 62.443149 1.367340e+05
736162 62.297480 62.472282 61.918738 62.083831 2.100537e+05
736165 61.977008 62.229502 61.773073 62.112964 1.434347e+05
736166 61.918738 62.239206 61.132132 61.258379 2.074317e+05
736167 61.151555 61.656540 61.132133 61.180688 3.068746e+05
736168 61.336067 61.433178 60.607726 60.656281 1.520777e+05
736169 60.539747 60.801951 59.724004 59.966785 2.953182e+05
736172 59.722898 60.064338 59.244879 59.878985 2.486666e+05
736173 60.113114 60.825261 59.771674 60.776485 2.377404e+05
736174 62.434914 65.742012 61.956895 64.727444 7.400488e+05
736175 64.698179 66.268808 64.434785 65.849323 1.249966e+06
736176 66.132232 67.029732 65.849323 66.132232 6.080575e+05
736179 66.122475 66.395627 64.912800 65.634702 3.552937e+05
736180 65.751771 66.522452 65.585929 66.268808 3.174425e+05
736181 66.483429 67.644322 66.434648 67.127285 2.433011e+05
736182 67.098020 67.419952 66.522451 66.698050 2.373502e+05
736183 66.610248 67.215089 66.268808 67.107778 2.347163e+05
736186 67.322398 68.385739 67.156550 68.210141 1.770615e+05
736187 67.702862 68.239407 66.922422 67.488240 3.764630e+05
736188 66.951686 67.917482 66.268807 67.098020 2.070108e+05
736189 66.834625 67.878459 66.629762 67.341906 2.359845e+05
736190 67.312641 68.219899 67.166308 68.161369 1.714033e+05
736193 67.917482 68.619868 67.458975 68.375982 1.576482e+05
736194 68.093081 68.561339 67.761391 68.122346 1.443807e+05
736195 67.819922 68.015035 66.873648 67.419952 2.011575e+05
736196 66.961444 67.400437 66.337096 66.405384 2.307165e+05
736197 65.478619 66.454164 65.400573 65.956634 4.327520e+05
736200 63.215353 65.966391 63.078777 64.532338 4.958698e+05
736201 66.220028 66.424891 63.868967 63.937255 3.100284e+05
736202 65.068884 65.137172 63.810437 65.078641 2.938343e+05
736203 65.566414 66.102967 64.805489 66.005414 2.738356e+05
736204 65.576172 66.102967 65.303020 66.054187 1.816466e+05
736207 65.742011 66.132232 65.439595 65.712747 2.367649e+05
736208 64.454293 65.283505 64.171384 64.190899 3.482698e+05
736209 64.922558 65.312771 63.898232 64.854270 2.422280e+05
736210 65.068884 65.810301 65.010353 65.732255 1.555020e+05
736211 65.068883 65.810300 64.932308 65.624944 2.383258e+05
736215 66.093209 66.688292 65.634701 66.356603 3.611469e+05
736216 66.356604 66.941937 65.468861 66.122475 4.217283e+05
736217 65.566414 66.307830 64.951823 65.273755 3.571472e+05
736218 65.049375 65.771277 64.464050 65.751770 2.601780e+05
736221 65.634703 65.634703 65.078642 65.088399 1.710131e+05
736222 65.888345 66.766337 65.722505 66.737073 5.108932e+05
736223 66.639513 67.468732 66.220027 67.351664 2.082790e+05
736224 67.458975 67.683346 66.688293 66.746823 1.741349e+05
736225 66.132232 66.620005 65.361550 65.507884 4.379224e+05
736228 65.829815 66.668777 65.498126 65.976141 1.888656e+05
736229 65.244481 65.771277 65.029868 65.107906 1.675012e+05
736230 65.283505 65.420081 64.229914 65.049376 3.503184e+05
736231 64.649400 64.649400 63.566551 63.995785 2.685677e+05
736232 64.083587 64.083587 63.254368 63.927497 4.020223e+05
736235 63.547034 63.654345 62.532466 62.581247 2.133518e+05
736236 62.571490 63.410460 62.064206 63.351929 4.346055e+05
736237 63.907989 64.659157 63.712876 64.346982 3.037849e+05
736238 64.337224 65.781035 64.181141 65.595679 5.556707e+05
736239 65.010353 66.337096 64.542096 66.317588 2.107178e+05
736242 66.756580 67.341906 66.385876 66.737073 2.649582e+05
736243 66.854134 66.990709 65.956634 66.024921 2.988096e+05
736244 66.346853 67.049247 66.063944 67.000467 2.166687e+05
736245 67.078512 68.063808 66.824868 67.927232 1.804759e+05
736246 67.985770 68.971066 67.985770 68.541831 2.459350e+05
736249 68.590603 68.912534 68.210140 68.844247 2.293508e+05
736250 68.678407 69.146664 68.219899 68.444278 2.515932e+05
736251 68.395498 68.990581 67.868702 67.966255 1.277965e+05
736252 68.171119 68.395498 67.263861 67.985770 2.305214e+05
736253 67.985770 68.200392 67.566285 68.132096 2.073034e+05
736256 67.907725 68.327209 67.839436 68.278429 1.816466e+05
736257 68.200391 69.088134 68.200391 68.766202 2.150102e+05
736258 68.805225 69.068626 68.093081 68.161369 1.899387e+05
736259 68.561338 69.614929 68.493050 69.546641 2.617389e+05
736260 70.200255 70.405118 69.322263 69.653952 2.506176e+05
736263 69.556399 69.927103 69.312513 69.556399 2.389111e+05
736264 69.507619 69.575907 67.927232 69.214952 2.750063e+05
736265 69.322264 70.092945 68.990581 70.092945 3.113941e+05
736266 68.512566 70.580717 68.512566 70.570960 3.818285e+05
736267 69.868573 73.409800 69.868573 71.761126 9.251098e+05
736270 73.240234 74.327524 72.329260 74.170801 4.235533e+05
736271 74.229571 74.405889 73.142280 73.230443 2.860258e+05
736272 73.220645 73.220645 71.555430 71.731747 4.151292e+05
736273 71.829700 72.280288 71.496652 71.947240 2.206905e+05
736274 71.976632 71.976632 71.192997 71.761132 2.824995e+05
736277 71.555430 71.917855 70.350592 70.967700 2.565416e+05
736278 70.938314 71.545632 70.409361 71.545632 2.877890e+05
736279 71.819902 72.113768 71.418295 71.565220 1.506533e+05
736280 71.016680 71.418295 69.322072 69.351464 2.985639e+05
736281 69.233916 70.233044 69.126167 70.056727 5.285600e+05
736284 70.399573 70.703227 69.694303 70.624862 1.926756e+05
736285 70.810977 71.388902 70.321207 70.497524 1.690687e+05
736286 70.742409 72.006017 70.448544 71.927652 1.775907e+05
736287 71.819903 72.270491 71.261565 72.172538 1.357643e+05
736288 72.427220 73.024740 72.211720 72.770058 1.540817e+05
736291 72.721079 72.995349 72.192126 72.339058 2.341102e+05
736292 71.908065 73.191260 71.643584 72.760260 2.214741e+05
736293 72.907192 74.014071 72.701490 73.338193 2.598721e+05
736295 73.269625 73.818166 72.779855 73.475328 6.386603e+04
736298 73.632051 73.945504 72.554558 72.956173 2.729979e+05
736299 73.171666 73.739802 73.044329 73.436146 1.227364e+05
736300 73.269626 73.730004 72.221518 72.417423 1.536899e+05
736301 72.789645 73.063915 71.428084 71.957037 1.789620e+05
736302 71.996221 72.995349 71.996221 72.828828 8.766887e+04
736305 72.515375 73.073712 72.123557 72.701490 2.378324e+05
736306 71.996221 72.544762 71.633788 72.094173 2.203966e+05
736307 71.770923 72.916990 71.359517 71.584815 2.306818e+05
736308 71.741537 72.192125 71.241977 71.927652 1.719093e+05
736309 71.232179 72.054990 70.761997 71.369315 1.658362e+05
736312 71.281153 71.800315 70.918728 71.065660 2.417506e+05
736313 71.506450 71.908065 70.987294 71.565220 1.815088e+05
736314 71.859085 72.299876 71.104834 71.947240 1.872881e+05
736315 72.074585 72.437010 70.781592 70.781592 1.571183e+05
736316 70.781591 70.781591 69.635523 69.655119 7.933298e+05
736319 70.017551 70.507321 69.753071 70.193869 2.195150e+05
736320 70.370178 71.026476 69.939186 70.830564 1.197978e+05
736321 71.349719 72.015807 70.967699 71.957037 2.120705e+05
736322 71.731747 72.133355 71.271362 71.800315 7.718778e+04
736326 71.486862 72.427220 71.418296 72.201923 1.346868e+05
736327 72.485990 72.946375 72.094172 72.525173 7.914687e+04
736328 72.388038 72.799443 71.506450 72.113768 9.873767e+04
736329 71.770922 72.427219 71.134227 71.163612 1.545715e+05
736333 70.526909 70.732611 69.772666 70.605274 2.824015e+05
736334 70.605274 70.605274 69.557166 70.203659 3.171752e+05
736335 69.253505 70.125295 68.920465 69.723687 3.819228e+05
736336 68.587417 69.263301 68.176011 68.332741 3.146284e+05
736337 68.528646 69.184936 68.244578 68.450281 5.534403e+05
736340 68.499260 68.920464 67.656856 68.391511 3.056166e+05
736341 68.871484 69.469004 67.911538 68.411098 2.808342e+05
736342 68.695165 69.380849 67.480537 67.500133 3.721274e+05
736343 67.686240 67.764605 66.736085 67.343403 4.301162e+05
736344 66.138565 66.863430 65.629207 66.677315 3.371578e+05
736348 67.441355 67.441355 65.923072 66.726295 2.172621e+05
736349 65.972045 67.010363 64.972917 66.442228 2.471380e+05
736350 66.510795 66.941787 65.325551 65.335342 3.164895e+05
736351 66.099390 66.922201 65.815322 66.853633 2.474319e+05
736354 66.578148 66.666700 65.564768 65.781220 3.249706e+05
736355 66.548633 69.480555 66.479764 69.352648 5.728063e+05
736356 69.106681 70.493935 68.595074 69.116522 4.831761e+05
736357 69.677326 70.169258 69.273945 69.529744 4.140104e+05
736358 69.716680 71.733607 69.716680 71.723766 7.832550e+05
736361 71.123608 71.517155 70.434897 71.143282 2.798112e+05
736362 70.326678 70.631675 69.657650 70.169257 3.204449e+05
736363 70.651349 71.989405 69.441199 71.969732 4.260136e+05
736364 71.831991 72.530534 70.720219 71.074411 3.597011e+05
736365 71.802476 73.455370 69.342813 69.972487 2.768596e+05
736368 69.421518 71.881181 68.752489 71.851666 5.132824e+05
736369 71.320377 74.055521 71.133448 73.209404 5.717240e+05
736370 73.475045 74.311329 72.264888 72.992953 3.568479e+05
736371 72.009087 73.809556 72.009087 73.120853 5.183985e+05
736372 73.612786 74.429396 72.510854 74.085044 3.014563e+05
736376 74.822943 74.960683 72.284569 72.756820 3.804606e+05
736377 73.051982 73.465204 71.989406 72.186184 3.680639e+05
736378 72.314084 72.560050 71.802477 72.117314 2.561985e+05
736379 72.117313 72.569890 70.405383 71.704084 6.893943e+05
736382 72.284569 72.687949 71.271189 71.625381 3.811493e+05
736383 71.674569 71.841825 70.887482 71.694251 2.606259e+05
736384 71.251507 72.924083 71.054737 72.717472 2.166471e+05
736385 72.806017 73.189723 72.294410 73.140527 2.053326e+05
736386 73.573429 73.740685 72.127147 72.146828 1.568281e+05
736389 72.314083 73.179882 71.802476 72.520694 2.081859e+05
736390 72.845372 73.868593 72.560050 73.297949 2.292406e+05
736391 73.189722 73.622625 72.628920 73.209404 1.523023e+05
736392 73.150367 74.035847 72.619080 73.986651 3.485834e+05
736393 73.986651 74.872131 73.927621 74.773746 2.947660e+05
736396 74.645847 75.186968 73.878425 74.498265 2.126132e+05
736397 74.498264 74.901645 73.907947 74.567135 2.329792e+05
736398 74.724551 75.295194 73.888266 74.626165 3.081465e+05
736399 75.049227 75.570675 73.917780 74.153914 2.620033e+05
736400 74.291654 74.970516 74.291654 74.557295 2.353405e+05
736403 74.557295 74.970516 73.671815 74.026007 2.813854e+05
736404 73.573429 75.265678 72.845371 74.931168 3.592091e+05
736405 74.557295 75.590356 74.311329 75.314875 1.851634e+05
736406 75.600189 76.505351 75.275519 76.013418 2.993901e+05
736407 75.708416 76.328256 74.941002 75.649386 6.018303e+05
736410 75.747771 76.731636 75.580516 76.131477 2.085794e+05
736411 75.757611 77.154698 75.403419 76.810347 2.376034e+05
736412 76.702121 77.617116 75.747771 76.879217 2.491146e+05
736413 76.672606 76.731636 75.619871 76.141318 2.042504e+05
736417 76.426639 77.105509 76.200347 77.046472 3.151320e+05
736418 76.682447 77.440020 76.131478 77.243250 6.140302e+05
736419 77.508890 77.764697 76.800506 77.459701 2.894531e+05
736420 77.558086 77.745016 76.938246 77.144865 3.671784e+05
736421 76.770992 77.882764 76.564381 77.813886 1.907714e+05
736424 77.951633 78.384529 77.440019 77.636797 1.741441e+05
736425 77.056313 77.508890 76.249543 76.485669 2.151713e+05
736426 76.485669 76.928413 75.423101 76.721802 2.462614e+05
736427 76.387285 76.387285 75.619872 76.101963 2.155648e+05
736428 76.593894 76.593894 75.796966 76.111803 1.757183e+05
736431 76.711961 76.908731 75.915033 76.111803 1.689296e+05
736432 76.220029 76.446314 75.728097 76.338088 1.977569e+05
736433 76.770992 76.967769 75.629712 76.928413 1.696183e+05
736434 77.095669 77.302280 76.721802 77.184213 2.084810e+05
736435 77.154698 78.020504 76.898899 77.971308 2.429163e+05
736438 77.725342 78.374697 77.656471 78.345174 2.175326e+05
736439 78.610822 79.024044 77.981149 78.168078 2.997837e+05
736440 78.433725 78.640335 77.882763 78.482914 1.854586e+05
736441 78.325500 78.738721 77.164538 77.312120 2.150729e+05
736442 77.351476 78.502596 77.351476 78.394370 2.347502e+05
736445 77.959835 78.433871 77.772192 78.038837 2.634873e+05
736446 78.335115 79.006672 77.762315 78.937541 2.314895e+05
736447 78.898037 79.362203 78.552385 78.967168 2.994353e+05
736448 78.759776 79.322699 78.019089 78.305489 5.683542e+05
736449 76.261191 76.992000 74.769938 75.056338 7.681424e+05
736452 74.839070 76.369827 74.710687 75.895783 4.728549e+05
736453 75.441494 75.550130 74.661303 74.809442 8.258172e+05
736454 74.315650 74.957581 74.078632 74.621799 5.670704e+05
736455 74.602051 75.530381 74.187268 75.115591 3.032869e+05
736456 75.056338 75.599511 74.779815 75.332860 2.196385e+05
736459 75.224225 75.866157 74.720564 75.599512 3.611592e+05
736460 75.777277 76.340199 75.362487 76.122930 1.941589e+05
736461 76.113052 76.705600 75.727895 75.876034 2.486735e+05
736462 76.359949 77.011757 76.122931 76.666097 2.171696e+05
736463 76.379696 76.379696 75.560008 76.014295 2.003807e+05
736466 76.122930 76.824114 75.678513 76.438957 1.673954e+05
736467 76.300695 76.458705 74.305773 74.463790 4.412523e+05
736468 74.187268 75.145217 73.900868 74.315651 3.332106e+05
736469 73.831737 74.542798 73.239189 73.920616 2.499574e+05
736470 74.374903 74.839069 74.039128 74.394659 2.979539e+05
736473 74.552668 74.690929 73.802110 73.861363 2.177621e+05
736474 74.305773 75.609383 74.216894 75.431617 2.546978e+05
736475 75.401991 75.905661 75.135347 75.401991 1.712470e+05
736476 75.569879 75.806903 75.016834 75.480999 1.385580e+05
736477 75.569879 76.231565 75.234104 76.182183 2.432418e+05
736481 76.261192 76.577218 75.876035 76.300696 2.643761e+05
736482 75.905661 76.251313 75.125469 76.251313 1.921837e+05
736483 76.192061 76.389574 75.836530 76.389574 2.198361e+05
736484 76.606844 76.824113 75.984668 76.241435 1.432984e+05
736487 76.350071 77.061132 75.836531 76.132801 1.825054e+05
736488 76.073548 76.942626 76.073548 76.527835 1.678892e+05
736489 76.626592 77.574679 76.162435 76.754983 1.265094e+05
736490 76.438956 76.903122 76.221686 76.824113 1.218678e+05
736491 76.438957 77.229019 76.438957 77.229019 2.712892e+05
736494 76.784609 77.110513 75.668643 75.826652 2.585493e+05
736495 75.876035 76.004417 75.155095 75.490877 2.430443e+05
736496 75.550130 76.004417 75.115591 75.372365 2.106515e+05
736497 75.115591 75.984669 74.720564 75.550130 2.818563e+05
736498 75.273608 75.648887 74.848947 75.401991 3.469381e+05
736501 76.221686 77.011756 76.221686 76.656226 1.390517e+05
736502 76.656227 77.248775 76.508087 76.715479 2.107503e+05
736503 76.942627 77.337654 76.656226 77.337654 1.607786e+05
736504 78.098098 79.144933 78.098098 79.144933 3.639245e+05
736505 76.241436 77.130262 75.589634 75.797026 4.558685e+05
736508 74.987208 75.026712 73.347816 73.673720 3.237298e+05
736509 73.969999 74.750190 73.604590 74.750190 2.136143e+05
736510 75.599513 75.994540 75.006957 75.767400 1.955415e+05
736511 76.004418 78.167229 75.806904 78.147472 3.909843e+05
736512 78.009211 78.740028 77.525297 78.186976 1.671979e+05
736516 77.870949 78.117845 76.833991 77.742566 2.044298e+05
736517 77.683314 77.841324 77.001879 77.762315 1.899123e+05
736518 77.910453 78.344993 77.308027 77.515419 1.534705e+05
736519 78.285733 78.858532 78.117844 78.799280 1.306573e+05
736522 79.085681 79.470837 78.888159 79.204186 1.427058e+05
736523 79.747359 80.162142 79.362203 79.411585 1.420145e+05
736524 79.767108 79.915247 79.085681 79.233819 1.856657e+05
736525 79.796742 79.994256 78.868411 79.194315 1.324349e+05
736526 79.115307 79.628846 78.927663 78.927663 1.624575e+05
736529 78.927663 79.539968 78.591889 78.917793 9.224029e+04
736530 78.868411 79.095550 78.236358 78.631393 8.601851e+04
736531 78.572133 79.717733 78.572133 79.302950 1.888259e+05
736532 79.065925 79.569595 78.740027 78.947419 1.308548e+05
736533 78.927663 79.786863 78.917793 79.460959 1.391505e+05
736536 79.342006 79.698868 79.104101 79.252787 2.329507e+05
736537 79.183398 80.016076 79.183398 79.599741 1.835849e+05
736538 80.035899 80.035899 78.588632 79.024797 3.184981e+05
736539 79.014882 79.292439 78.281337 78.687758 2.370149e+05
736540 79.223050 80.789274 76.437558 77.498226 7.241296e+05
736543 77.458574 77.458574 76.328516 76.665547 2.999612e+05
736544 76.556512 76.556512 75.277761 75.941917 4.030542e+05
736545 76.041043 76.298778 75.585056 75.951832 2.116382e+05
736546 76.070781 76.814240 75.872528 76.110433 1.703018e+05
736547 76.625902 76.645725 75.783309 75.922087 2.158015e+05
736550 76.041044 76.913367 75.327322 75.505752 1.833867e+05
736551 75.594971 75.932002 75.059679 75.317414 1.516658e+05
736552 75.406626 75.664361 75.178628 75.555319 1.318402e+05
736553 75.912181 76.189738 75.208374 75.436363 1.916143e+05
736554 75.327322 75.436362 74.692903 74.920901 9.833492e+04
736557 75.208372 75.416540 74.821773 74.841596 1.021018e+05
736558 74.930807 74.980374 74.425261 74.504565 1.843780e+05
736559 74.564039 75.158805 74.355871 75.129068 1.778355e+05
736560 75.138983 76.160000 74.960553 76.160000 2.189736e+05
736561 75.793224 76.318601 75.575141 76.110433 2.075739e+05
736564 76.100519 76.546599 75.733750 76.427642 1.433390e+05
736565 76.734944 77.250406 76.596158 76.665547 3.096757e+05
736566 76.546597 77.062060 76.546597 76.903459 1.842788e+05
736567 76.754765 77.855086 76.754765 77.389184 2.175858e+05
736568 77.369363 78.380465 77.369363 77.785698 3.729193e+05
736571 77.815435 78.370549 77.815435 78.092992 1.619751e+05
736572 78.092992 78.430031 77.904646 78.003780 1.971655e+05
736573 77.855087 78.102907 77.280143 77.299973 2.772609e+05
736574 77.438752 77.617182 76.814241 77.290058 2.079704e+05
736575 77.785697 78.489505 77.418921 78.469683 2.507937e+05
736579 78.747239 79.114009 78.231770 78.767062 2.352306e+05
736580 78.489505 79.669130 78.489505 79.589826 3.133434e+05
736581 79.817816 79.847560 78.479590 78.519242 2.788469e+05
736582 78.211948 78.211948 76.754766 76.784503 3.241484e+05
736585 76.328516 77.874910 76.328516 77.825350 1.804129e+05
736586 77.399099 77.686571 76.467293 76.863807 2.446478e+05
736587 76.814241 77.081890 76.387990 76.695292 1.486919e+05
736588 76.625902 77.309880 76.586250 77.220669 1.611820e+05
736589 76.685378 77.329711 76.685378 76.923282 3.075940e+05
736592 77.220669 78.112821 77.210753 77.924476 2.311664e+05
736593 78.410200 78.717503 78.013687 78.033517 2.785495e+05
736594 78.122730 78.122730 77.161187 77.736131 4.095967e+05
736595 78.370549 78.816629 77.676657 78.767062 2.787478e+05
736596 78.479590 78.796800 77.924477 78.102907 1.557300e+05
736599 78.003779 78.281336 77.349532 77.379269 2.864798e+05
736600 76.685377 77.458573 76.685377 77.062060 6.258938e+05
736601 77.676656 77.964128 76.933197 77.924476 2.100521e+05
736602 77.597352 77.884824 76.407820 76.536683 1.740687e+05
736603 76.685377 77.240491 76.298778 76.734944 4.037481e+05
736606 76.397905 76.764680 75.932002 76.685377 2.988707e+05
736607 76.566422 77.002586 75.337237 75.436363 2.405835e+05
736608 75.793224 75.922087 75.267847 75.446278 1.876492e+05
736609 75.436362 76.001391 75.099331 75.971654 1.521614e+05
736610 75.991485 76.001392 74.534302 74.980375 2.770626e+05
736613 75.376888 75.852698 75.020027 75.287669 1.153849e+05
736614 74.960553 75.059679 73.899884 74.415346 1.513684e+05
736615 74.901071 75.148891 74.454998 75.000205 1.396713e+05
736616 74.127875 75.535489 73.929622 74.930808 2.093582e+05
736617 74.960552 75.654445 74.910985 75.366973 1.752582e+05
736620 75.357059 75.803138 75.347151 75.535489 8.019451e+04
736621 76.110434 76.328516 75.317414 75.723835 1.119154e+05
736622 75.614794 76.110434 75.376889 75.813054 9.704626e+04
736623 75.456193 76.130263 74.732555 75.307499 2.173876e+05
736624 75.565233 76.734944 75.208373 76.487124 1.826928e+05
736627 77.418921 77.418921 75.882443 76.328516 1.494849e+05
736628 76.328516 76.467294 75.525582 76.328516 1.853693e+05
736629 76.150085 76.516860 75.535488 75.604878 1.765469e+05
736630 75.723834 75.723834 74.950638 75.614793 1.730774e+05
736631 74.454998 75.327321 71.947062 72.383220 4.606475e+05
736634 72.612224 73.568040 70.571153 71.128718 6.419904e+05
736635 71.497102 71.536928 70.013596 70.312292 3.434967e+05
736636 70.272465 71.228281 70.123117 70.610980 2.662349e+05
736637 70.541284 71.148627 70.332200 70.561202 2.174484e+05
736638 70.800154 71.586713 70.670723 71.098850 2.344739e+05
736641 72.253792 74.026034 71.975013 74.006125 4.564026e+05
736642 73.956341 75.738542 73.727347 75.409978 5.044922e+05
736643 74.583599 75.738541 74.205250 74.782725 3.117357e+05
736644 75.270588 75.270588 70.959454 71.118760 6.333283e+05
736645 71.049066 71.815707 70.441723 71.536928 3.155192e+05
736648 71.975014 73.219567 71.975014 73.189699 3.066580e+05
736649 73.159830 73.478436 72.671960 73.060260 1.892717e+05
736650 73.309171 73.398782 72.592315 73.249435 2.041068e+05
736651 73.259393 73.936430 72.482793 73.259393 2.065959e+05
736652 73.100086 73.438609 72.552488 73.329088 2.287987e+05
736655 73.378866 73.936431 73.020434 73.916514 1.817048e+05
736656 74.274945 75.320374 73.637735 75.161067 4.504288e+05
736657 74.842461 75.917758 74.842461 75.718632 1.929556e+05
736659 75.708674 76.325975 75.419936 75.738542 1.230614e+05
736662 75.768409 76.943269 75.688757 76.136800 3.451893e+05
736663 76.216453 76.525100 74.474078 75.350241 3.260730e+05
736664 75.688757 75.718633 72.851177 72.861135 3.213935e+05
736665 72.881044 74.016076 72.144271 73.757215 4.654630e+05
736666 73.727347 74.225169 73.279303 74.026035 3.864089e+05
736669 74.513897 74.802635 72.841226 73.060260 3.494706e+05
736670 72.990566 73.538173 72.781481 73.478436 3.551458e+05
736671 71.526970 73.597909 71.526970 73.159831 5.767758e+05
736672 73.169782 74.264987 73.169782 73.876687 4.065209e+05
736673 74.284904 74.852419 73.956340 74.424293 3.875041e+05
736676 74.523855 74.822552 73.826909 74.284904 2.755939e+05
736677 74.573642 75.270588 73.986208 74.045952 2.695205e+05
736678 74.245078 74.643336 72.642092 72.731704 3.424015e+05
736679 73.000524 73.398782 72.512661 72.642092 3.445919e+05
736680 72.900961 73.080178 72.413098 72.612224 6.628989e+05
736683 72.871093 73.707430 72.462876 73.478436 2.792778e+05
736684 73.329089 73.737298 73.080178 73.657652 2.682262e+05
736685 73.548131 73.836868 73.020433 73.040351 2.793773e+05
736686 73.179739 73.179739 72.263750 72.701828 2.905285e+05
736687 72.542529 73.607866 72.542529 73.289261 1.607963e+05
736691 73.488388 74.245078 73.129955 73.846819 2.009207e+05
736692 73.727347 74.364557 73.249436 73.398783 1.901678e+05
736693 73.319130 73.797042 73.000525 73.368915 1.387926e+05
736694 73.408741 73.697471 72.930829 73.129955 2.391534e+05
736698 73.936430 73.936430 72.034748 72.701828 3.348346e+05
736699 72.602266 74.394426 72.602266 73.906563 4.169752e+05
736700 73.398783 74.085779 72.910920 73.149872 3.548471e+05
736701 73.209608 73.647693 72.751614 73.179740 2.815678e+05
736704 73.179740 74.085779 72.761572 73.358956 3.724699e+05
736705 73.010483 73.269344 72.482793 72.502703 1.607963e+05
736706 72.711787 73.040351 72.462876 72.721745 1.922586e+05
736707 72.831267 73.438609 72.044709 73.010483 1.834970e+05
736708 72.990566 73.498346 72.711787 73.179740 1.880769e+05
736712 72.562439 73.508305 72.542530 73.020434 2.690227e+05
736713 73.100087 73.478437 72.701829 73.159831 2.598628e+05
736714 73.319129 73.368914 72.144270 72.413098 3.730673e+05
736715 72.054667 72.194056 71.238240 71.327844 3.457867e+05
736718 71.566796 72.213965 71.128718 72.134312 3.829242e+05
736719 72.472835 73.528213 72.472835 73.219567 2.648410e+05
736720 73.040351 73.617825 72.821308 73.110045 2.658366e+05
736721 73.070218 73.358955 72.144270 73.000524 2.742996e+05
736722 73.080178 73.169782 72.592315 73.120004 3.190039e+05
736725 73.070000 73.440002 72.099998 72.739998 3.420000e+05
736726 72.870003 73.309998 72.290001 72.970001 6.694000e+05
736727 73.290001 74.050003 73.050003 73.940002 4.469000e+05
736728 73.800003 73.800003 73.010002 73.330002 3.257000e+05
736729 73.769997 74.129997 73.500000 73.779999 2.782000e+05
736732 73.529999 74.019997 73.120003 73.349998 2.545000e+05
736733 73.339996 73.470001 72.650002 72.730003 3.608000e+05
736734 72.620003 73.699997 72.440002 73.550003 3.973000e+05
736735 73.370003 73.940002 73.160004 73.570000 4.380000e+05
736736 74.209999 76.199997 74.209999 74.790001 1.160100e+06
736739 75.220001 75.440002 74.360001 74.430000 4.400000e+05
736740 74.400002 74.400002 73.720001 73.830002 4.320000e+05
736741 73.830002 73.919998 72.860001 73.199997 5.217000e+05
736742 73.400002 74.230003 73.400002 74.199997 2.656000e+05
736743 74.419998 74.550003 73.470001 73.900002 3.044000e+05
736747 73.910004 74.660004 73.860001 74.589996 1.886000e+05
736748 74.339996 74.809998 73.940002 74.260002 2.045000e+05
736749 74.470001 74.559998 74.040001 74.120003 2.506000e+05
736750 73.779999 74.489998 73.639999 74.360001 2.324000e+05
736753 74.099998 75.019997 74.099998 74.480003 2.518000e+05
736754 74.269997 74.650002 73.949997 74.510002 3.902000e+05
736755 75.209999 76.169998 74.919998 76.059998 3.710000e+05
736756 75.690002 76.070000 75.459999 75.809998 3.277000e+05
736757 75.529999 76.239998 75.529999 76.040001 2.984000e+05
736760 75.470001 76.089996 75.470001 75.650002 3.021000e+05
736761 75.540001 75.940002 75.180000 75.470001 4.527000e+05
736762 75.279999 76.059998 75.279999 75.940002 4.356000e+05
736763 75.879997 76.480003 75.589996 75.849998 3.412000e+05
736764 76.120003 77.000000 75.800003 76.790001 4.354000e+05
