736034 85.057807 85.992838 84.526318 85.185763 3.911065e+06
736035 85.677882 85.815675 84.270423 84.359000 3.003598e+06
736036 83.857037 84.309793 82.774377 84.044044 4.345999e+06
736039 83.768458 86.642430 83.719243 86.514482 4.875716e+06
736040 85.490874 86.583378 85.038126 85.431822 3.738725e+06
736041 84.723170 89.929788 84.644429 89.230980 5.301891e+06
736042 87.990839 88.482958 86.967231 88.118787 3.502606e+06
736043 88.335320 90.490802 88.020364 89.250661 5.885741e+06
736046 89.811676 89.969158 87.597142 87.597142 3.150249e+06
736047 87.793987 88.522327 87.242815 87.439660 2.638938e+06
736048 88.266423 89.221136 87.390453 88.542009 3.607034e+06
736049 90.047891 90.480957 88.827438 89.919943 4.780540e+06
736050 89.191609 89.683728 88.719171 89.132550 2.499078e+06
736053 90.195528 91.041974 89.349084 90.687647 3.424064e+06
736054 89.693566 91.012448 89.398300 90.244744 3.519634e+06
736055 90.589226 91.878574 89.624670 89.782151 3.753685e+06
736056 88.876654 91.504567 87.823520 91.248663 4.523851e+06
736060 91.888418 93.896264 91.829366 93.374619 4.694813e+06
736061 93.699412 94.476961 92.636441 92.784071 5.150712e+06
736062 93.512411 94.073427 92.321485 92.557700 3.222787e+06
736063 92.626597 94.555702 92.626597 94.201375 3.354282e+06
736064 94.358858 95.077346 93.748628 95.067502 2.529884e+06
736067 95.224983 95.372621 92.715175 93.197456 3.062357e+06
736068 94.319509 95.591426 94.003986 95.108294 3.159496e+06
736069 95.404094 96.961947 95.078716 96.587275 5.777390e+06
736070 96.459099 97.563400 95.808344 96.626715 3.997585e+06
736071 95.680169 96.104143 95.039275 95.867508 3.156341e+06
736074 95.818205 97.622563 95.818205 96.370356 3.086829e+06
736075 96.459100 96.942231 95.009698 95.236470 3.192921e+06
736076 95.581571 97.218305 94.950540 96.330916 2.857193e+06
736077 96.606998 97.859198 96.468953 96.892928 2.670447e+06
736078 96.528119 96.597137 94.566007 95.364653 3.095604e+06
736081 96.183023 96.587274 95.206892 95.995684 2.938734e+06
736082 96.271759 97.425362 96.271759 97.080268 3.684239e+06
736083 96.843633 98.578972 96.419659 98.342330 3.847912e+06
736084 98.598689 99.032525 97.099992 97.563400 3.413487e+06
736085 97.819758 99.584675 96.242181 97.514105 3.534467e+06
736088 97.721162 99.939632 97.169011 97.997236 7.210226e+06
736089 97.316902 98.795883 93.205339 93.215201 1.159718e+07
736090 94.861797 95.502691 93.165899 93.747635 5.091143e+06
736091 94.753338 94.753338 91.124906 92.189774 5.124963e+06
736092 93.156044 93.175761 91.262944 92.189774 4.853323e+06
736095 92.732069 92.919402 90.188221 90.326259 3.897015e+06
736096 90.474159 92.278509 90.424856 92.101039 3.419896e+06
736097 92.722208 92.751787 89.705090 90.316397 3.498577e+06
736098 90.700933 90.789675 89.409292 89.458594 3.532002e+06
736099 89.054336 89.961442 87.999330 89.202235 3.221515e+06
736102 89.290970 90.750234 88.640223 90.513599 2.975708e+06
736103 90.198084 90.326260 88.975455 88.995179 3.538214e+06
736104 89.330410 89.448732 88.502185 89.192373 3.682069e+06
736105 89.892422 90.543177 89.409291 90.207938 3.902536e+06
736106 89.133217 90.109341 88.807840 88.995179 3.012683e+06
736110 87.999330 88.551480 87.309142 87.900733 3.865759e+06
736111 87.881008 88.679663 87.269701 87.752833 2.974624e+06
736112 87.309142 88.107789 86.766846 87.900733 3.737679e+06
736113 88.166946 88.265544 87.023206 87.447180 3.893564e+06
736116 87.772550 87.871154 86.944324 87.516198 2.846051e+06
736117 87.772550 89.083913 86.973902 88.512040 3.531411e+06
736118 88.295129 89.202235 87.723255 87.762695 2.108336e+06
736119 86.993627 87.881009 86.056935 86.155532 3.721312e+06
736120 85.780859 89.369850 85.603382 88.423304 4.367823e+06
736123 88.117651 88.699379 87.388014 87.861292 2.717084e+06
736124 88.758537 90.198084 87.841568 87.841568 2.623711e+06
736125 89.123353 89.438869 88.403588 89.143078 2.873955e+06
736126 89.724806 89.774109 88.965599 89.379713 2.268657e+06
736127 88.896582 89.162794 87.871154 88.275405 2.429570e+06
736130 87.269701 88.600783 87.259839 87.969751 2.756129e+06
736131 87.821852 89.093776 87.782412 88.817701 2.254360e+06
736132 89.409290 89.872706 87.180958 87.772549 4.928061e+06
736133 88.502184 88.866995 87.299279 87.565493 3.552018e+06
736134 87.052783 87.871154 87.003480 87.033059 4.238363e+06
736137 87.358436 87.427455 86.224550 86.845727 2.805724e+06
736138 87.042922 87.575356 86.431615 87.545777 3.562666e+06
736139 87.299280 87.821852 86.865443 87.102078 3.732848e+06
736140 86.934461 87.033059 86.076658 86.421752 3.744581e+06
736141 86.372449 87.457034 85.859740 86.826003 1.124676e+07
736144 85.770997 86.707689 84.942772 85.041369 3.965935e+06
736145 85.770997 86.668249 85.130104 86.323155 3.886169e+06
736146 86.618946 86.618946 83.651123 84.568092 4.579416e+06
736147 84.745570 85.485061 84.390614 84.469495 2.662066e+06
736151 83.306031 84.972351 82.872202 83.897621 3.464068e+06
736152 84.577954 85.879456 82.655283 85.504784 5.046577e+06
736153 84.893469 85.701978 82.822898 83.306030 4.615602e+06
736154 84.785011 86.125953 83.986364 84.104685 3.698141e+06
736155 84.775155 85.544224 83.266589 83.355332 2.863109e+06
736158 83.345471 83.601829 82.300327 83.029955 3.776527e+06
736159 83.020094 84.439917 82.921496 84.035666 3.230192e+06
736160 83.599003 84.201643 82.047946 82.245530 3.870035e+06
736161 82.729615 82.788896 81.346505 81.405787 3.970804e+06
736162 80.980974 81.158804 79.291608 79.528710 5.996070e+06
736165 79.271846 79.281728 76.979839 76.989720 6.968889e+06
736166 77.147785 77.434287 76.011667 76.396961 6.741367e+06
736167 76.248769 76.555027 74.845905 75.171917 7.118264e+06
736168 75.280590 75.893112 74.559402 75.399145 6.258959e+06
736169 75.181797 75.656010 73.719659 74.253145 5.779613e+06
736172 73.205929 73.828333 71.980894 72.306913 5.553475e+06
736173 72.514380 76.624182 72.514380 75.922749 7.792035e+06
736174 75.576973 78.056691 75.576973 76.802010 6.283855e+06
736175 76.713099 77.770188 75.873356 77.592360 4.485024e+06
736176 77.058875 77.365132 76.070941 76.258650 4.139642e+06
736179 75.280591 76.693337 74.539640 75.517700 5.074525e+06
736180 76.149977 76.831646 75.428781 75.814075 3.933856e+06
736181 77.118150 77.997410 75.043489 75.171917 4.837717e+06
736182 74.737231 77.394769 74.391455 76.742736 6.628545e+06
736183 74.342055 77.750425 72.148840 72.870035 8.373830e+06
736186 72.781117 75.557217 72.731725 75.349745 6.851522e+06
736187 74.223501 76.495752 73.284966 76.367324 5.903895e+06
736188 76.387079 79.291608 75.576973 78.965588 8.134651e+06
736189 78.343193 79.528711 77.394769 78.718605 5.818637e+06
736190 78.540776 79.904123 77.849225 78.965588 3.860946e+06
736193 78.540777 79.192817 77.938136 79.044625 3.701987e+06
736194 78.748241 79.568228 78.323429 79.439800 3.494027e+06
736195 78.906315 78.916188 75.152162 76.140096 5.963369e+06
736196 76.090696 77.493568 75.685647 75.804201 6.711532e+06
736197 75.468299 76.495752 73.225693 73.956762 7.675360e+06
736200 69.155400 72.395824 67.327724 68.424331 9.403949e+06
736201 71.230060 71.239943 67.466034 67.535189 6.639511e+06
736202 69.362865 70.182853 67.574707 70.133453 6.682091e+06
736203 72.109322 75.181798 71.980894 74.875541 7.074301e+06
736204 74.589039 78.382703 74.500129 76.377198 6.878196e+06
736207 75.280590 78.204882 73.670260 77.365132 6.781181e+06
736208 75.102762 76.387080 74.272900 75.102762 6.299958e+06
736209 76.130215 76.772373 73.966644 76.772373 5.291870e+06
736210 77.305858 79.192817 75.863475 76.515508 6.152954e+06
736211 75.300353 76.505634 75.033607 75.962267 4.643983e+06
736215 76.643944 77.236703 74.539639 76.722981 5.075611e+06
736216 77.789944 78.392584 75.744920 76.001785 6.367632e+06
736217 76.634062 77.295976 75.211434 77.118148 4.756607e+06
736218 75.823956 76.475997 74.924932 76.219132 4.516638e+06
736221 76.219133 76.219133 75.122525 75.507818 3.660297e+06
736222 76.110459 76.861291 75.636247 76.317924 3.606454e+06
736223 76.742737 79.202691 76.525390 78.975470 3.947785e+06
736224 79.054498 80.200505 78.165363 78.698849 5.432749e+06
736225 77.908499 78.234518 75.013851 75.339871 5.974631e+06
736228 76.120340 76.396961 74.954578 75.596729 3.219381e+06
736229 74.519884 75.735047 73.788815 74.312419 3.392468e+06
736230 74.332174 75.013851 71.990775 72.158722 3.844448e+06
736231 71.417771 72.830517 70.617546 72.376068 4.389985e+06
736232 73.166412 73.314603 71.318978 71.911738 3.847313e+06
736235 70.874404 71.318979 68.266258 68.592278 4.526616e+06
736236 69.017091 69.817315 68.305776 69.283829 3.728069e+06
736237 69.995142 72.059929 69.817314 71.921619 4.751174e+06
736238 72.909554 74.766868 72.119204 72.702081 5.614826e+06
736239 71.793182 76.515507 70.726211 76.130214 5.959812e+06
736242 77.216948 80.714228 77.058874 79.676902 7.339660e+06
736243 79.746057 82.719741 79.578110 81.840473 6.695231e+06
736244 83.352018 84.369590 81.188439 82.759252 6.809930e+06
736245 82.304804 86.217023 82.067702 85.989802 6.713014e+06
736246 86.296059 87.234601 85.061141 86.246667 5.732192e+06
736249 86.068838 86.938218 83.905259 84.991986 4.746234e+06
736250 84.102843 85.248851 83.727431 84.251035 5.538261e+06
736251 84.130265 85.268633 83.902596 84.912275 3.291761e+06
736252 84.437136 86.278322 84.070876 86.258519 3.573383e+06
736253 86.862349 87.109820 85.684385 86.614878 4.086737e+06
736256 85.397317 85.595298 83.259171 83.952087 4.213443e+06
736257 83.714517 84.783594 83.100785 84.011485 3.507259e+06
736258 83.585834 83.843199 82.566255 82.932507 2.975196e+06
736259 83.773906 85.298329 83.516542 84.932077 2.871753e+06
736260 84.229252 85.219137 83.467045 84.565817 2.647842e+06
736263 84.239154 84.427235 82.407870 82.546453 3.461131e+06
736264 81.012128 82.110901 79.240243 81.863430 5.095627e+06
736265 82.140603 85.298329 81.516971 83.932292 3.791257e+06
736266 83.467045 85.031064 83.278964 84.654903 2.953914e+06
736267 84.912276 85.803173 83.516543 84.981567 3.129618e+06
736270 84.278750 85.624993 83.853099 85.199343 3.561109e+06
736271 86.020949 88.614441 85.407218 87.555265 5.458123e+06
736272 87.584967 88.060108 84.882580 85.595298 3.869161e+06
736273 85.407218 87.327596 84.585612 85.595298 3.992995e+06
736274 84.546023 87.594860 83.377958 84.407432 5.218967e+06
736277 85.070660 86.298115 83.635324 84.506427 3.810956e+06
736278 84.357942 86.001146 83.863000 85.704186 3.870151e+06
736279 85.476508 87.010833 82.348478 82.477161 3.509635e+06
736280 81.507071 81.912927 80.111338 80.863652 3.401935e+06
736281 80.824056 82.110901 79.685687 81.417985 3.080322e+06
736284 81.606065 84.001584 81.170514 83.932292 3.021820e+06
736285 83.437350 83.457145 81.101222 82.140604 3.256818e+06
736286 82.991897 84.397538 82.110901 84.288651 3.168521e+06
736287 83.407654 83.783807 80.913141 81.813940 2.769597e+06
736288 82.160398 82.427664 81.150719 81.794138 2.950548e+06
736291 81.526873 82.536551 81.229905 81.734748 2.691198e+06
736292 82.457367 84.783594 82.318784 84.278750 4.376180e+06
736293 83.387853 83.773907 82.358372 82.685036 3.006279e+06
736295 82.041609 82.427663 81.071527 81.190308 1.431967e+06
736298 81.576371 83.783808 81.368488 82.586049 3.794722e+06
736299 82.605843 83.278965 82.180193 83.199780 2.558059e+06
736300 82.487061 83.209673 79.596601 80.042046 4.497341e+06
736301 80.814155 81.645662 79.438217 80.170729 4.627709e+06
736302 78.487929 80.022245 77.705919 79.675787 4.706108e+06
736305 77.092189 77.606933 73.795880 75.419289 6.290220e+06
736306 73.964157 77.092187 73.182147 76.329980 5.282815e+06
736307 76.686339 79.586701 76.102304 77.587130 5.322707e+06
736308 77.052591 79.339230 76.617048 77.389156 4.966052e+06
736309 76.537856 78.626512 74.003754 74.132436 4.911806e+06
736312 73.607798 76.250787 72.974272 76.082509 5.795377e+06
736313 77.181282 77.864305 76.201298 76.518061 5.643331e+06
736314 76.508160 76.834823 74.954041 75.033234 4.911113e+06
736315 74.706570 75.211413 71.202379 72.558523 6.048193e+06
736316 72.449635 73.122758 70.687643 70.707437 6.566695e+06
736319 70.875715 71.123186 68.598986 69.539373 5.027424e+06
736320 69.618566 70.855921 68.876153 69.103822 5.181648e+06
736321 70.677743 73.013870 70.073912 72.944578 5.298554e+06
736322 73.003969 73.231645 71.915098 72.677305 1.774764e+06
736326 71.034100 71.251876 69.499776 69.776943 3.957557e+06
736327 71.152882 71.598334 69.836341 70.370872 3.136349e+06
736328 69.093928 70.370872 69.034530 69.895732 3.320765e+06
736329 69.400791 70.865815 69.291902 70.073912 3.080916e+06
736333 70.083813 70.281787 68.133740 68.975140 5.084739e+06
736334 69.351293 69.826441 67.876367 69.420584 3.628124e+06
736335 67.807075 67.807075 66.025281 66.639012 6.559666e+06
736336 65.253172 68.311918 64.530560 64.797826 5.244308e+06
736337 65.193782 65.758015 64.114804 64.857217 4.939622e+06
736340 65.213576 65.391757 62.283520 63.025933 5.302414e+06
736341 63.996023 64.520660 60.729401 62.283519 7.052431e+06
736342 62.946533 64.177282 62.122732 63.690934 7.687576e+06
736343 64.187202 66.112722 63.135118 64.772801 7.081634e+06
736344 61.547060 63.542053 60.554525 62.499896 5.783895e+06
736348 62.678553 63.154968 59.035949 60.524751 5.436111e+06
736349 59.284082 60.425498 56.723346 59.790277 1.054230e+07
736350 59.790278 63.770339 58.966472 63.274072 7.348626e+06
736351 65.943991 66.986149 64.187201 65.527122 6.776132e+06
736354 64.137579 65.656156 61.050792 61.130197 4.932102e+06
736355 62.529671 65.636300 61.824972 65.537049 6.738316e+06
736356 64.604063 67.422865 64.008545 65.576751 7.018509e+06
736357 68.713164 69.268981 66.152424 68.117637 6.687399e+06
736358 68.653606 70.648602 68.504725 70.489794 6.831813e+06
736361 68.782641 69.477412 67.184660 68.574202 4.455586e+06
736362 66.509736 68.852118 65.507274 66.658618 5.422811e+06
736363 68.097791 69.745394 65.824886 69.665996 5.341026e+06
736364 70.142409 70.857035 67.631298 67.929061 5.135671e+06
736365 67.174731 67.174731 65.130113 66.559358 5.473232e+06
736368 65.169817 68.286374 64.266606 67.919133 6.227657e+06
736369 66.708241 67.462569 63.859664 65.100332 6.335149e+06
736370 64.961377 66.281450 63.432877 65.298843 4.269982e+06
736371 63.145041 65.497347 62.589224 65.070557 5.372589e+06
736372 66.321153 68.246671 65.487427 67.194580 5.435913e+06
736376 68.256592 68.574202 65.755408 67.383164 3.719920e+06
736377 68.484877 70.410396 67.095327 70.291290 6.241255e+06
736378 70.460020 70.698233 68.822336 68.941443 3.640716e+06
736379 68.097790 69.209431 67.551893 69.189576 3.548410e+06
736382 69.189576 72.226729 69.189576 71.670912 4.649627e+06
736383 71.154797 71.214348 67.144958 67.512191 4.385712e+06
736384 66.728094 69.417861 66.251675 69.000992 4.120507e+06
736385 68.673461 69.775175 66.668537 67.988610 5.316709e+06
736386 67.492343 69.179649 65.249213 66.996076 1.052166e+07
736389 66.916671 67.055626 64.236831 64.256679 7.890947e+06
736390 64.613991 64.981231 62.063178 64.534587 7.486588e+06
736391 64.465110 66.618916 63.661159 66.499809 5.204255e+06
736392 66.450179 69.149873 65.685930 68.733011 6.594796e+06
736393 69.388087 70.986061 68.226816 70.876889 7.871592e+06
736396 70.589054 74.966127 69.695771 74.906577 8.383244e+06
736397 74.092699 74.281274 69.953831 70.033229 6.549636e+06
736398 71.055538 71.958748 69.288829 71.720542 4.658460e+06
736399 70.628756 72.316061 69.785095 71.730462 4.523277e+06
736400 72.593970 75.323439 72.445089 74.618741 4.250033e+06
736403 73.159714 74.886722 72.742852 74.221726 3.164597e+06
736404 73.268893 73.814790 71.363229 73.060462 3.881306e+06
736405 73.814791 74.708066 72.147332 74.479787 4.845355e+06
736406 75.095161 76.871791 74.618741 75.928886 4.640198e+06
736407 76.921420 77.119924 74.072844 75.065378 7.399940e+06
736410 74.459933 75.750230 74.033142 75.392917 2.877953e+06
736411 74.827171 76.673287 74.817244 75.333367 2.823066e+06
736412 74.886722 75.968589 73.288741 73.785008 3.812027e+06
736413 71.879343 74.350760 71.780092 73.745313 3.594364e+06
736417 73.745313 74.201878 72.971130 73.973592 2.609075e+06
736418 72.623744 75.075306 72.593969 74.886722 3.218789e+06
736419 75.869336 75.928886 73.040607 73.110092 4.105321e+06
736420 72.931435 73.864412 71.829722 72.038153 5.622410e+06
736421 70.321064 71.928973 69.884355 71.502183 5.105002e+06
736424 71.938900 72.087774 69.586591 69.785095 3.426824e+06
736425 69.368233 70.827260 69.139955 70.013382 3.441613e+06
736426 70.152335 71.174645 69.239206 70.688305 4.128149e+06
736427 70.261515 71.541886 69.864499 70.916584 2.995072e+06
736428 72.822257 72.951283 71.899198 72.921508 3.191892e+06
736431 73.328443 74.221726 73.149786 73.457477 3.431688e+06
736432 73.904115 77.248959 72.990985 76.931348 5.486730e+06
736433 77.197925 77.764897 75.914773 77.367020 4.604521e+06
736434 77.615692 78.212504 76.591162 77.396859 2.652541e+06
736435 77.008931 77.008931 74.671410 75.308011 4.842949e+06
736438 73.646880 77.267552 73.179374 77.028828 3.551642e+06
736439 78.103089 79.754278 77.287443 78.709850 3.809565e+06
736440 77.715159 79.634912 76.233072 78.948581 4.044610e+06
736441 78.958522 79.863694 78.292081 78.739697 3.318884e+06
736442 79.246984 81.345782 79.077889 80.490347 3.140536e+06
736445 79.963162 80.092470 78.620332 79.336510 2.813084e+06
736446 80.092470 82.420049 79.545394 82.340472 3.635295e+06
736447 83.245643 84.976402 82.599093 84.061289 3.774950e+06
736448 83.404790 84.300014 81.166737 81.455198 3.248659e+06
736449 82.270843 82.798028 80.599763 82.181325 4.546332e+06
736452 81.892864 82.618984 80.251623 82.340472 4.277865e+06
736453 81.007590 81.793397 79.624972 80.201886 3.751773e+06
736454 80.181996 81.564614 78.391550 78.918734 3.737649e+06
736455 80.012900 82.310633 79.724440 80.828546 5.179154e+06
736456 78.411448 81.216475 77.665430 78.262242 5.043777e+06
736459 77.794737 78.411448 76.630951 78.222454 2.986757e+06
736460 78.351761 79.426028 78.292082 79.306670 4.067985e+06
736461 78.958522 80.778807 77.804685 79.893534 3.175052e+06
736462 80.957852 81.415409 79.127626 80.072579 2.265308e+06
736463 79.784117 80.540084 78.182665 78.232403 3.202008e+06
736466 79.217144 80.977751 79.217144 80.261572 2.976909e+06
736467 80.370988 82.042068 79.963161 81.136897 3.931315e+06
736468 80.928013 81.713819 79.455867 79.983060 2.465340e+06
736469 78.729749 79.764227 77.247662 79.654811 3.778332e+06
736470 80.162097 80.878276 79.117677 80.490347 3.305157e+06
736473 79.376298 81.435307 79.306670 80.838487 3.198228e+06
736474 81.355730 82.638881 80.221784 82.052010 3.295310e+06
736475 82.061960 82.937284 81.853076 82.638882 2.879828e+06
736476 83.106387 83.494315 81.773498 81.863024 2.354731e+06
736477 81.504934 81.823235 80.341142 81.136897 2.086264e+06
736481 81.594454 82.042068 80.649501 80.928013 2.993222e+06
736482 80.221784 80.878276 79.575233 80.321251 3.319381e+06
736483 79.535445 80.152156 78.779478 80.062630 2.058810e+06
736484 79.813957 80.370989 78.689960 79.286772 2.114612e+06
736487 80.181995 80.987692 79.545393 80.838487 2.026483e+06
736488 81.554666 85.175338 81.475097 84.966454 4.346300e+06
736489 86.140188 86.408760 84.687941 84.906775 3.776641e+06
736490 83.723090 84.986351 83.553995 84.130917 3.569049e+06
736491 82.877605 83.892185 80.898173 81.126948 2.967758e+06
736494 80.559976 82.658773 80.082528 80.957853 2.223432e+06
736495 80.788757 82.609042 80.639552 82.539414 2.323298e+06
736496 82.290742 83.096439 81.067270 82.002281 2.139380e+06
736497 80.818597 80.918064 78.908793 79.754278 3.123129e+06
736498 80.520186 81.117007 79.913424 80.460507 3.263380e+06
736501 81.892864 82.947233 81.375621 82.748298 3.197930e+06
736502 82.549355 84.767518 82.390209 84.459167 3.521005e+06
736503 84.449219 84.638204 82.987022 83.156117 2.402774e+06
736504 84.309961 84.518845 83.524155 84.051340 2.400387e+06
736505 81.146846 82.439939 80.380930 80.629603 4.915959e+06
736508 79.575233 80.370989 77.695270 78.172716 4.211619e+06
736509 80.221785 81.335833 79.426028 81.315942 3.089210e+06
736510 82.360370 83.563945 81.972442 82.996971 2.855060e+06
736511 82.996971 83.514207 82.201215 82.977073 3.346139e+06
736512 83.335162 85.274812 82.927343 84.329852 2.661195e+06
736516 82.678671 83.583835 81.236364 82.320581 2.690439e+06
736517 81.594454 82.668722 81.425359 82.320581 2.195580e+06
736518 83.384900 83.414739 80.689290 81.176686 2.134407e+06
736519 82.400150 82.628933 81.136897 82.101748 1.968990e+06
736522 82.499625 83.444578 82.161426 82.459837 1.680231e+06
736523 84.101079 85.503588 83.693252 84.687942 2.845511e+06
736524 84.307213 84.785612 82.343805 83.559720 2.802600e+06
736525 84.556377 84.646080 83.599587 84.347080 2.011354e+06
736526 84.227486 84.616183 83.360392 83.818853 2.465530e+06
736529 83.639454 84.028150 82.463399 82.971696 1.858566e+06
736530 82.592969 82.872032 81.586344 81.765742 2.166533e+06
736531 81.257445 82.583001 80.649483 81.835508 2.149490e+06
736532 81.875376 83.180993 80.928546 81.217578 1.819198e+06
736533 81.775711 81.925204 79.921928 80.709288 2.611341e+06
736536 80.111288 80.290687 77.928614 78.486740 4.265991e+06
736537 78.207677 80.181054 77.779115 80.181054 2.539482e+06
736538 80.490022 81.676039 79.383733 79.513295 3.438666e+06
736539 79.473428 80.440186 78.985068 79.632897 2.528917e+06
736540 78.735904 81.616242 78.596373 81.426875 2.877249e+06
736543 80.769085 80.858781 77.998380 78.436904 3.579793e+06
736544 79.104670 80.091359 78.257506 79.622928 3.028940e+06
736545 79.732561 82.144469 79.403662 82.094641 3.026349e+06
736546 81.755774 84.018189 81.327210 83.958385 4.228816e+06
736547 86.938394 90.466554 86.459996 89.858600 8.898453e+06
736550 90.665890 91.692445 90.167561 90.356929 4.491036e+06
736551 90.984820 91.084484 89.599468 90.077858 3.053956e+06
736552 90.566226 90.566226 88.901802 89.121068 2.655194e+06
736553 89.768897 90.845289 88.782209 89.978194 3.433882e+06
736554 90.346961 91.114383 89.699132 90.895117 1.905608e+06
736557 91.204086 91.662547 90.237327 90.247296 2.784759e+06
736558 89.888498 90.496460 88.543005 89.958264 2.455165e+06
736559 89.509765 90.356929 89.001475 89.918397 3.149835e+06
736560 90.516390 91.792109 89.988163 91.423351 4.108420e+06
736561 90.865218 91.632648 90.356929 91.453250 2.330782e+06
736564 90.526359 91.532976 89.968226 90.865218 2.268491e+06
736565 90.426694 91.542944 90.406756 90.905085 2.976416e+06
736566 90.466554 91.094453 90.257257 90.426694 2.321414e+06
736567 90.396789 90.546288 89.699132 89.948296 1.923448e+06
736568 90.426694 91.204086 89.619397 89.878530 1.635614e+06
736571 89.679202 91.024688 89.310437 90.835320 2.218658e+06
736572 90.964882 91.383483 89.340333 89.768897 1.612990e+06
736573 89.459935 89.599467 87.725747 88.194177 2.700044e+06
736574 88.014779 88.343677 87.147692 88.253982 2.412608e+06
736575 88.971569 89.200803 88.393512 88.612779 1.931920e+06
736579 89.948295 94.881744 89.758928 94.512986 7.396790e+06
736580 94.463150 94.841885 93.725626 94.004689 4.257220e+06
736581 94.861815 95.609308 93.845229 95.110979 3.684940e+06
736582 94.044556 94.552854 92.310375 92.340274 3.003227e+06
736585 91.742281 93.217329 91.044616 92.669172 2.490447e+06
736586 91.303750 91.822008 89.230701 90.097796 3.972575e+06
736587 89.579530 90.516390 87.875247 88.154310 3.661419e+06
736588 88.552973 92.081140 88.194177 90.645952 3.918656e+06
736589 89.240670 91.154250 88.971569 90.665890 4.544457e+06
736592 91.353586 91.562883 89.719061 89.748967 3.727497e+06
736593 89.858600 91.542945 89.738998 90.097796 3.039206e+06
736594 91.253914 93.476462 90.795452 93.207361 3.178240e+06
736595 94.293721 94.682416 92.121008 92.300407 3.036914e+06
736596 91.941610 92.051243 89.101139 89.449967 3.667498e+06
736599 89.918397 90.327022 88.712443 88.961607 2.124374e+06
736600 87.855318 88.702474 86.888558 88.263943 2.929175e+06
736601 89.160935 94.263822 88.273912 93.645892 4.518644e+06
736602 93.964822 95.619276 92.828633 94.732252 4.471502e+06
736603 95.230581 96.875059 94.373455 96.386699 3.993106e+06
736606 95.948167 96.386698 94.742213 95.788706 2.310849e+06
736607 95.998004 96.047840 94.194057 94.821948 1.718934e+06
736608 96.047839 97.991318 95.768768 97.054457 3.273520e+06
736609 97.223895 97.732185 96.067769 96.815262 1.783717e+06
736610 96.556129 97.004630 95.728910 96.117605 1.737074e+06
736613 96.954793 97.772051 96.805293 96.964762 1.957036e+06
736614 96.426566 96.745496 95.400010 95.728909 2.092880e+06
736615 95.559471 96.436534 94.831916 95.978073 2.407724e+06
736616 95.277196 95.776395 93.839500 95.347084 2.248793e+06
736617 96.115848 96.115848 93.759634 94.328720 2.522754e+06
736620 94.308747 94.797961 92.901009 93.629836 2.096737e+06
736621 94.807948 95.007633 92.791185 92.980876 2.731020e+06
736622 94.109071 96.025995 93.849485 94.907786 3.158534e+06
736623 93.819534 95.347083 93.619850 94.758032 2.468241e+06
736624 94.039184 94.867850 93.490061 93.729675 2.725229e+06
736627 93.829521 94.518411 92.132239 93.470097 2.564886e+06
736628 93.330321 94.039183 92.421775 92.521613 1.426812e+06
736629 91.702926 92.950925 90.235279 91.992463 3.281138e+06
736630 92.361873 92.741262 91.153812 91.593102 3.575566e+06
736631 91.503250 93.939337 90.534801 90.654612 3.264564e+06
736634 90.514838 91.083924 90.035602 90.275216 2.403046e+06
736635 91.173777 92.072337 89.756053 91.014037 2.492003e+06
736636 89.766039 91.643026 88.797590 90.794388 3.297312e+06
736637 90.734478 92.731276 90.444942 91.932562 4.151242e+06
736638 94.718095 95.846283 91.363474 91.653011 6.764252e+06
736641 93.450124 93.450124 92.062350 93.280398 2.983415e+06
736642 92.751249 93.949323 92.421775 93.210511 2.378386e+06
736643 93.200524 94.518410 92.371852 93.280398 4.678397e+06
736644 92.491662 93.549963 91.912590 92.481676 2.978224e+06
736645 91.922575 92.391824 89.975701 91.263636 2.336553e+06
736648 91.043987 92.651410 89.945742 92.531599 2.463050e+06
736649 93.879436 94.837897 92.901009 94.418572 8.275128e+06
736650 94.358671 95.866248 93.899408 95.067533 4.096830e+06
736651 95.946121 96.425357 91.892625 92.192140 5.868289e+06
736652 92.601486 94.129036 92.232076 93.000848 2.750988e+06
736655 94.847885 96.844682 94.708110 95.516810 4.634967e+06
736656 95.636619 96.045959 93.270411 95.117448 3.861607e+06
736657 94.638222 97.543558 94.488460 96.844682 2.671216e+06
736659 96.235658 96.654984 95.037582 95.826318 1.515869e+06
736662 96.485257 96.684934 93.120651 93.320335 3.026346e+06
736663 91.453327 93.230476 89.855891 92.291986 4.003979e+06
736664 97.154183 102.904962 96.934534 102.355840 1.010479e+07
736665 105.540734 107.297918 103.683711 104.582272 6.494884e+06
736666 104.642174 105.301120 103.224448 103.573887 4.071770e+06
736669 104.712061 106.638972 104.152961 104.292736 5.874479e+06
736670 103.354239 105.131394 102.395777 103.803522 3.534032e+06
736671 103.753600 104.801921 102.525573 103.364225 3.771651e+06
736672 103.863424 105.081472 102.196100 104.761984 6.179190e+06
736673 105.420923 106.818683 105.181309 106.279547 4.043116e+06
736676 108.925305 109.194878 105.021570 105.660545 5.749279e+06
736677 106.828669 108.955256 105.630594 107.837054 3.906335e+06
736678 106.519168 107.297918 103.913347 104.043136 4.003879e+06
736679 102.865025 104.881795 102.375812 103.753599 4.639359e+06
736680 103.923325 104.422524 102.625411 103.833473 8.892039e+06
736683 104.103038 104.232835 102.964863 103.314309 2.235315e+06
736684 104.033150 104.172925 102.545538 102.994822 2.379284e+06
736685 103.583874 103.693698 102.166149 102.385798 2.361113e+06
736686 102.505602 103.164549 101.706888 102.964864 2.718041e+06
736687 102.535551 102.875011 101.457286 101.866626 1.703468e+06
736691 102.655363 102.954885 102.156163 102.375812 1.408541e+06
736692 102.325889 102.665349 101.187714 101.487238 1.893064e+06
736693 101.437314 101.786752 100.379014 101.117827 1.515270e+06
736694 100.988039 102.016388 100.568712 100.938115 2.174712e+06
736698 102.465664 104.462462 101.666950 103.374211 4.144553e+06
736699 104.083072 104.302721 102.805123 103.454084 2.414028e+06
736700 103.464063 104.682110 103.254400 104.013185 3.079861e+06
736701 104.442498 105.540734 103.543937 105.041535 2.414428e+06
736704 104.152960 104.412546 102.655362 102.855039 3.374887e+06
736705 103.064708 104.232834 102.705285 103.234435 2.909134e+06
736706 103.394176 104.871809 102.565510 104.751998 3.537227e+06
736707 105.510002 106.510002 104.839996 105.370003 4.671700e+06
736708 104.839996 106.080002 104.269997 105.389999 2.580500e+06
736712 105.949997 106.760002 105.449997 105.480003 3.881100e+06
736713 105.339996 105.709999 104.730003 105.400002 2.527500e+06
736714 105.500000 106.209999 104.459999 105.190002 2.425800e+06
736715 106.230003 106.790001 105.300003 105.470001 2.488100e+06
736718 104.720001 105.099998 103.339996 103.459999 3.045500e+06
736719 104.489998 104.620003 102.910004 103.680000 2.680500e+06
736720 103.629997 104.389999 103.239998 103.900002 2.798100e+06
736721 104.099998 105.260002 103.900002 104.389999 2.772600e+06
736722 104.160004 104.160004 102.779999 102.900002 2.343600e+06
736725 102.190002 102.760002 99.570000 101.199997 2.975600e+06
736726 101.349998 101.620003 100.099998 101.580002 2.447500e+06
736727 102.190002 102.629997 100.050003 101.000000 3.028500e+06
736728 101.139999 101.480003 98.940002 99.709999 5.064400e+06
736729 99.680000 102.180000 99.209999 100.940002 3.520900e+06
736732 101.000000 101.050003 99.430000 99.699997 1.802400e+06
736733 99.250000 99.500000 95.269997 97.190002 5.158000e+06
736734 96.599998 98.489998 95.279999 98.139999 3.445400e+06
736735 98.139999 100.290001 98.139999 99.809998 2.927000e+06
736736 101.230003 102.029999 100.570000 101.440002 3.089000e+06
736739 100.910004 101.379997 100.139999 100.349998 1.944900e+06
736740 100.330002 101.480003 99.019997 101.230003 3.861200e+06
736741 100.910004 101.470001 100.349998 100.750000 2.048200e+06
736742 101.059998 101.480003 99.839996 100.169998 3.150500e+06
736743 99.910004 100.019997 98.430000 99.029999 3.020400e+06
736747 100.410004 100.849998 99.430000 99.470001 2.719100e+06
736748 98.760002 99.199997 97.459999 97.529999 2.577300e+06
736749 99.190002 99.190002 96.550003 97.570000 3.211800e+06
736750 96.519997 97.500000 95.650002 96.300003 3.580200e+06
736753 96.779999 98.230003 96.300003 97.910004 5.143100e+06
736754 99.500000 99.550003 95.290001 96.989998 6.364600e+06
736755 98.250000 100.419998 98.010002 100.050003 3.760900e+06
736756 99.180000 99.709999 98.239998 98.470001 3.048900e+06
736757 98.500000 99.309998 98.120003 98.570000 2.075400e+06
736760 98.620003 100.379997 97.800003 100.070000 3.099600e+06
736761 100.400002 100.540001 99.400002 99.529999 3.364200e+06
736762 98.809998 99.360001 94.489998 94.830002 4.795600e+06
736763 93.769997 96.019997 93.059998 95.699997 4.985400e+06
736764 96.500000 96.500000 94.010002 94.790001 3.781000e+06
