736034 110.576544 110.736709 109.212654 109.295166 7.737737e+05
736035 109.397096 111.552131 109.261194 111.489031 4.787670e+05
736036 111.008522 111.387108 109.858194 110.620226 5.735108e+05
736039 111.023081 111.755985 110.678467 111.673473 5.296336e+05
736040 110.892030 111.411370 109.756271 110.304732 5.417678e+05
736041 109.649490 112.683040 108.237067 111.459910 1.024224e+06
736042 110.746419 111.134715 109.620369 109.775683 4.930368e+05
736043 110.343562 111.755985 109.586389 111.178396 7.547473e+05
736046 111.018224 111.547280 109.897025 109.901876 6.262218e+05
736047 109.882464 110.600807 109.445636 109.445636 5.692396e+05
736048 109.591241 110.193100 107.887602 107.974972 6.342789e+05
736049 107.067328 107.994383 106.805233 107.411943 5.461361e+05
736050 107.761409 108.722435 107.232352 108.217656 5.935080e+05
736053 108.868047 109.717441 108.309870 108.960268 6.140876e+05
736054 108.203087 109.887315 107.829359 109.469898 8.916210e+05
736055 109.377685 109.673760 107.921581 108.945708 7.880435e+05
736056 108.440920 109.338854 108.203087 108.518581 6.897079e+05
736060 108.072044 109.193243 107.751700 108.829217 5.341960e+05
736061 108.741846 109.853343 108.436070 109.159263 5.763260e+05
736062 108.877756 110.013516 108.877756 109.756271 7.862962e+05
736063 109.872755 110.916300 109.411656 110.828930 5.713752e+05
736064 111.149275 111.586103 110.193100 111.391959 6.836894e+05
736067 111.319157 111.998669 110.867760 111.435640 6.526258e+05
736068 111.348278 111.498741 110.139709 110.644496 6.218535e+05
736069 111.023081 111.192956 109.945564 110.309590 8.978337e+05
736070 113.105308 113.144138 109.969834 110.057197 1.209828e+06
736071 109.270903 110.668758 108.892317 109.989246 1.073537e+06
736074 110.683318 111.120154 109.435927 110.508586 9.280236e+05
736075 110.765838 110.799810 109.484466 110.202809 5.734138e+05
736076 110.256200 110.858051 109.445635 109.887315 4.233380e+05
736077 109.732001 110.110588 109.387386 109.634929 4.147955e+05
736078 109.630071 110.086318 107.994383 108.387530 8.394925e+05
736081 108.460340 108.703024 106.965406 107.193529 1.052957e+06
736082 107.038207 107.431354 106.101450 107.149840 9.499623e+05
736083 106.635352 107.911872 106.358696 107.834211 8.510443e+05
736084 107.013938 108.319579 106.790672 107.538136 1.076449e+06
736085 107.620648 109.115582 107.343992 108.989389 7.356238e+05
736088 109.149561 109.693170 108.999098 109.222363 5.294394e+05
736089 109.935855 110.168829 107.465333 107.547845 6.896109e+05
736090 108.072044 108.139995 107.101308 107.775969 6.850484e+05
736091 107.858747 109.933139 107.459447 109.519238 1.054240e+06
736092 110.916773 112.251010 110.439567 111.535198 7.719083e+05
736095 111.281984 112.085443 110.639218 110.697649 8.385226e+05
736096 110.298349 110.692782 109.280631 109.314721 6.075150e+05
736097 109.324455 109.952620 108.345694 109.757837 7.521382e+05
736098 110.648951 111.510849 110.050008 111.413461 7.437628e+05
736099 111.355023 112.864562 110.945989 112.825605 6.150140e+05
736102 112.825604 112.825604 111.754322 112.450653 8.972484e+05
736103 112.426313 112.927868 111.700759 111.992930 7.214606e+05
736104 111.997797 112.377615 111.135899 111.476760 6.256294e+05
736105 111.179729 112.109792 111.140772 111.622845 3.235275e+05
736106 111.335548 112.153622 111.335548 111.603370 3.617042e+05
736110 111.228419 111.598497 109.928272 110.400611 7.162016e+05
736111 110.790170 111.827363 110.644085 111.579022 6.981845e+05
736112 111.165113 112.061102 110.707390 111.910149 5.993343e+05
736113 111.642327 112.153623 111.043377 111.457285 5.842389e+05
736116 111.106682 112.124400 110.673300 111.525457 4.399079e+05
736117 111.350156 111.953973 110.541822 111.145639 3.742674e+05
736118 111.671544 112.046495 111.033644 111.992930 5.424589e+05
736119 111.476760 112.119534 111.140773 111.398854 6.849396e+05
736120 110.984945 111.588762 110.278874 111.330681 5.092491e+05
736123 111.223553 111.301466 110.639218 111.072600 5.117812e+05
736124 111.257635 112.139007 110.829126 111.632586 5.213254e+05
736125 112.207180 113.453770 112.002663 112.913259 9.638628e+05
736126 113.366116 114.408182 112.465269 113.940717 8.795236e+05
736127 113.775150 113.916368 113.064211 113.580374 5.652480e+05
736130 112.621088 113.108035 111.949099 112.416571 9.646419e+05
736131 112.212054 113.156732 111.997796 112.971690 1.253304e+06
736132 113.234638 113.780024 112.134140 113.624197 2.459472e+06
736133 114.062454 115.153210 113.741067 114.734436 1.625331e+06
736134 114.101411 114.938953 113.770283 114.237755 2.152305e+06
736137 114.919478 115.542769 114.685745 115.085038 8.774784e+05
736138 115.386950 115.591467 114.685745 115.201908 1.144228e+06
736139 115.192167 115.396684 114.822090 114.890262 1.868221e+06
736140 115.016865 115.464856 114.627306 114.666263 1.176269e+06
736141 115.055822 115.143477 114.529919 114.929219 7.316865e+05
736144 114.081929 114.247490 111.880927 111.978322 9.707774e+05
736145 112.669785 112.971690 111.413462 111.725107 1.085502e+06
736146 112.757432 113.517069 112.221795 113.458637 1.223600e+06
736147 114.091669 114.257229 112.231528 112.884043 9.185767e+05
736151 111.812755 112.952215 111.228419 112.095184 1.388675e+06
736152 112.319183 112.319183 110.400611 112.056228 1.597965e+06
736153 110.936256 111.501108 110.069484 110.147396 1.496875e+06
736154 111.666677 111.851711 109.689665 109.699406 1.674026e+06
736155 111.140772 112.027011 110.575911 111.900408 1.328489e+06
736158 113.156732 113.565766 112.932733 113.487853 1.436201e+06
736159 113.458637 114.812348 113.419680 114.539660 1.154162e+06
736160 114.257230 114.909737 113.741067 113.926109 1.470385e+06
736161 114.033230 115.182426 108.628124 108.900813 5.215591e+06
736162 109.524105 110.575912 108.744995 108.881339 3.264395e+06
736165 109.027417 109.076115 107.732144 107.956135 2.090853e+06
736166 108.219091 108.637865 105.044195 105.385056 3.697583e+06
736167 105.297410 105.969392 104.489076 105.268186 2.377178e+06
736168 105.277927 105.365581 102.356245 102.872408 2.954015e+06
736169 102.784761 102.843192 99.522217 100.554543 3.030660e+06
736172 100.009165 100.515587 98.957359 99.716994 2.693790e+06
736173 100.320811 104.391687 99.960467 104.128732 3.000372e+06
736174 104.284558 106.144691 104.050818 105.735658 2.584227e+06
736175 105.667486 105.920700 104.761765 105.686961 1.201298e+06
736176 106.154433 106.514777 105.355840 105.550616 1.326833e+06
736179 104.508551 105.872003 104.274818 105.053936 1.495317e+06
736180 105.180539 105.628529 103.427527 103.758655 1.556380e+06
736181 104.878634 105.268186 103.485966 103.807345 1.176172e+06
736182 103.817121 104.110282 102.517459 102.810612 1.472925e+06
736183 102.468597 102.751984 101.374136 101.550031 1.553055e+06
736186 102.331789 104.178686 102.019088 104.178686 1.169311e+06
736187 102.957193 103.006055 101.432771 102.028861 1.443218e+06
736188 101.276417 101.833418 99.918118 101.657523 3.477444e+06
736189 101.882281 102.019088 101.100522 101.159152 1.202438e+06
736190 101.276417 102.409966 101.032118 102.312241 1.314033e+06
736193 101.833418 102.693346 101.481627 101.882281 1.542013e+06
736194 102.038628 103.299210 101.979999 102.185209 2.370967e+06
736195 101.413225 101.716152 99.820401 100.162417 2.125593e+06
736196 99.585875 100.064699 97.592398 97.592398 2.249892e+06
736197 96.312269 97.045165 94.905114 94.993058 2.485005e+06
736200 89.931191 93.761791 88.924682 90.155949 3.860992e+06
736201 92.706427 92.706427 88.944223 88.973545 2.893375e+06
736202 90.566369 91.094055 88.924683 90.976789 3.900667e+06
736203 92.510984 93.664073 91.142911 93.019129 4.481315e+06
736204 92.686878 94.181985 92.686878 93.918146 1.670807e+06
736207 93.380687 94.455606 92.598935 93.116847 1.675009e+06
736208 91.142911 91.494701 88.739014 89.266699 2.378296e+06
736209 90.732490 91.396983 89.530546 91.396983 2.440738e+06
736210 91.914895 92.725967 91.426298 91.836724 1.438137e+06
736211 90.556595 91.699910 90.185264 91.181999 2.100381e+06
736215 92.774829 94.211307 92.364403 94.201533 1.670611e+06
736216 95.139640 95.647777 93.781340 93.908372 2.858684e+06
736217 93.898597 95.168953 93.390460 94.436057 2.066668e+06
736218 94.103815 94.572865 93.243879 94.514235 1.439016e+06
736221 94.113582 94.563090 91.602193 92.012620 2.341553e+06
736222 92.012620 93.155935 91.533788 92.129878 2.331195e+06
736223 92.266685 93.185250 92.168967 92.901863 1.785823e+06
736224 92.901864 93.849743 91.963758 92.305774 2.121880e+06
736225 90.986563 91.846492 90.615232 91.064740 2.170153e+06
736228 91.416530 92.178741 90.898611 91.318805 1.159539e+06
736229 90.126634 90.458877 88.475173 89.530545 1.861262e+06
736230 89.657579 90.067998 87.752053 87.888859 1.660058e+06
736231 87.019156 87.419801 85.201573 86.100591 3.633404e+06
736232 86.638052 87.195052 85.631535 86.325342 1.472730e+06
736235 85.504502 85.826978 82.475202 82.582693 2.268850e+06
736236 82.758588 84.351413 82.572919 83.989848 2.427058e+06
736237 85.103849 86.208083 84.967042 85.690171 2.861616e+06
736238 81.038724 88.123383 81.038724 88.074520 3.499821e+06
736239 87.019156 90.605457 86.335115 90.546828 2.269045e+06
736242 91.309038 92.686878 91.074507 92.432806 1.928102e+06
736243 92.452354 93.028895 91.123369 91.269950 2.298068e+06
736244 90.781353 92.188507 90.370932 92.159193 2.157156e+06
736245 92.022386 93.800880 91.651055 93.585896 1.264099e+06
736246 93.517493 94.260162 92.843233 93.781339 1.656638e+06
736249 94.455606 95.481655 93.820427 95.120090 1.777223e+06
736250 94.338340 95.813905 93.683621 94.963743 2.175919e+06
736251 94.641267 95.989800 94.553323 95.100550 2.190674e+06
736252 95.579373 97.113567 94.113582 96.996309 3.179399e+06
736253 97.914867 100.905087 97.709657 98.442553 3.709039e+06
736256 97.748747 98.970239 97.133117 98.872521 1.266248e+06
736257 98.862746 100.064699 98.452327 99.067956 1.402958e+06
736258 99.400207 99.527239 97.719432 98.344835 1.932499e+06
736259 99.282940 101.628208 99.028867 101.256877 2.439956e+06
736260 102.116805 102.488136 101.364368 101.618434 1.511329e+06
736263 101.725926 102.097265 101.061434 101.559805 1.250027e+06
736264 101.110297 101.813878 100.289450 100.582611 1.285206e+06
736265 101.110296 101.970224 100.367626 101.950684 1.016771e+06
736266 102.019087 102.282926 101.217788 101.901821 1.074718e+06
736267 102.194983 102.390419 101.315506 101.882281 1.485238e+06
736270 101.843192 102.302474 101.002805 101.628208 1.423968e+06
736271 101.677071 102.400193 101.295966 101.813877 9.895070e+05
736272 102.263386 102.331789 101.422998 101.491402 7.137427e+05
736273 101.354595 101.637982 100.103787 100.856224 8.892468e+05
736274 100.503201 101.258278 99.855999 101.003316 9.924802e+05
736277 100.718938 100.777772 98.796934 99.757939 8.757870e+05
736278 99.424525 99.875607 98.434102 99.159763 1.290685e+06
736279 99.542202 99.993283 98.894992 99.640262 9.912054e+05
736280 98.659649 99.159764 97.286786 97.286786 1.866992e+06
736281 97.414262 99.512785 96.943572 98.875384 1.900726e+06
736284 98.953836 100.140378 98.287017 99.973668 1.732354e+06
736285 99.924642 101.062151 99.483360 99.738322 1.354327e+06
736286 99.836383 102.493848 99.581429 102.209476 2.087042e+06
736287 102.209475 102.542881 100.885639 101.366146 1.227926e+06
736288 101.493624 103.042997 101.307305 102.591915 1.726863e+06
736291 102.964546 103.974578 102.268311 103.425436 1.960935e+06
736292 102.503656 103.984386 102.503656 103.445045 1.137121e+06
736293 103.856909 104.690429 103.337176 104.396242 1.129962e+06
736295 104.219732 104.611979 103.494079 104.151089 4.820702e+05
736298 104.298183 104.425660 103.082223 103.690199 1.530151e+06
736299 104.327600 104.798299 103.768650 104.690430 9.887538e+05
736300 104.141281 104.670814 103.042997 103.297951 9.766923e+05
736301 103.356793 103.935352 101.905480 102.278118 1.109664e+06
736302 102.484047 104.307991 102.346762 103.905935 1.058868e+06
736305 103.229309 103.807876 102.258503 102.954738 9.813012e+05
736306 101.905480 102.503656 100.669912 100.758163 1.537800e+06
736307 100.758163 101.572075 98.640031 99.581428 1.996434e+06
736308 99.365692 99.767740 98.561587 98.924410 1.619583e+06
736309 98.924411 98.924411 96.502299 96.816095 1.748534e+06
736312 96.649385 97.041632 95.001952 95.835480 2.173336e+06
736313 96.806287 97.492714 96.561133 96.639584 1.233711e+06
736314 97.257369 98.385078 96.619968 98.277209 1.555059e+06
736315 98.581197 98.708682 96.266945 96.335588 1.553196e+06
736316 96.090434 96.296362 94.384166 94.423392 1.772951e+06
736319 95.041178 95.482459 94.619513 95.345173 1.178895e+06
736320 96.002183 97.237760 95.668770 96.845512 8.700994e+05
736321 97.453488 98.571389 97.316203 98.296818 8.119490e+05
736322 98.002637 98.836159 98.002637 98.443911 3.645926e+05
736326 98.257592 98.385076 97.492713 97.963412 6.675044e+05
736327 98.865577 98.983252 98.012439 98.630231 6.631897e+05
736328 98.385076 98.757707 97.777092 97.835927 7.162410e+05
736329 97.453488 98.061472 96.874930 96.904347 8.780424e+05
736333 95.384391 96.090434 94.197848 96.061017 1.604678e+06
736334 96.718027 97.394654 95.580518 96.404231 1.374332e+06
736335 94.570486 95.315748 94.070370 94.599903 1.774226e+06
736336 93.227041 95.256913 92.844602 93.403552 2.547245e+06
736337 93.825216 94.766606 92.344486 92.658283 1.940931e+06
736340 93.001496 93.864442 91.913020 92.619057 2.144801e+06
736341 93.482003 93.707541 91.971855 93.276075 1.295098e+06
736342 94.119404 94.374359 91.206977 91.246203 2.078805e+06
736343 91.481548 92.295460 89.824306 91.756119 2.255610e+06
736344 89.863531 90.559767 88.588729 90.118494 2.013006e+06
736348 91.001050 91.442323 88.157266 89.824307 3.253680e+06
736349 88.696598 92.854409 88.274934 91.707085 4.839530e+06
736350 91.197169 92.834793 88.853501 90.138103 4.227136e+06
736351 90.991241 92.972079 90.540159 91.354071 1.824630e+06
736354 91.010850 91.510966 89.167296 89.343808 1.591734e+06
736355 89.706638 91.481548 89.343808 90.785313 1.212824e+06
736356 90.638219 92.413129 90.118495 91.001049 1.850812e+06
736357 91.481549 92.217010 90.196945 90.304806 2.301797e+06
736358 90.922598 93.295683 90.491125 93.276075 2.319546e+06
736361 91.893405 94.040954 91.442323 93.736958 1.714507e+06
736362 93.128981 93.128981 90.863764 91.236395 1.604286e+06
736363 92.462163 93.305493 90.089077 93.266267 1.796094e+06
736364 93.482003 94.452810 92.766151 93.844826 1.429246e+06
736365 93.462387 93.972311 90.912790 91.069692 1.514461e+06
736368 90.422482 90.491125 87.137424 87.912111 1.889448e+06
736369 86.902079 89.902757 86.656925 89.226131 1.536819e+06
736370 89.892950 91.403097 89.275165 89.569345 1.216158e+06
736371 87.617923 88.971176 86.754985 87.539473 1.761674e+06
736372 88.314160 90.353839 87.882694 90.000818 1.410810e+06
736376 91.256004 91.952239 90.000818 91.805153 1.175659e+06
736377 92.838771 93.960986 91.559055 93.518009 1.821337e+06
736378 93.714886 94.088963 92.671424 93.212847 1.482900e+06
736379 93.183317 94.246463 92.218601 94.138178 1.567460e+06
736382 95.358840 96.471209 94.364594 95.211178 1.270959e+06
736383 95.033986 95.152117 93.222686 93.390040 1.240639e+06
736384 92.149694 94.315371 91.499986 94.187401 8.024830e+05
736385 94.610694 95.545871 93.084871 95.496655 1.020626e+06
736386 96.205424 96.914186 95.841194 96.628717 1.062168e+06
736389 96.441678 97.298101 94.984763 95.024140 1.408578e+06
736390 96.028232 98.922363 95.408055 98.026563 1.479947e+06
736391 97.672178 98.184063 96.894501 97.780463 9.303565e+05
736392 97.416232 99.178309 96.697624 98.735332 1.891722e+06
736393 99.099555 101.324301 98.755017 100.891163 2.040268e+06
736396 100.251301 101.836186 100.054424 101.757440 1.623276e+06
736397 100.782879 101.048672 99.768948 99.926456 1.260032e+06
736398 100.605686 101.107732 99.798478 100.684440 1.129599e+06
736399 100.999447 102.594178 100.251301 101.304617 8.874367e+05
736400 102.525272 103.588425 102.161041 103.371856 1.456518e+06
736403 102.712302 103.460448 102.377610 103.106064 8.649924e+05
736404 102.328387 103.312787 102.003541 103.125756 8.065190e+05
736405 102.594179 105.005956 102.505579 104.946895 1.105088e+06
736406 105.232372 107.998533 105.232372 107.693372 1.761781e+06
736407 107.909941 108.854964 106.364433 107.201172 2.587397e+06
736410 107.909942 108.805742 106.590842 107.191326 2.136444e+06
736411 107.102734 108.480888 106.866473 108.126503 1.637353e+06
736412 107.211019 107.969003 106.443180 107.437426 1.203232e+06
736413 106.512087 107.358672 105.704879 107.250387 1.364379e+06
736417 107.683525 107.900095 107.043664 107.693372 1.027025e+06
736418 107.102733 108.864802 106.915695 108.845118 1.010290e+06
736419 109.268410 110.351248 109.002625 110.154372 1.611266e+06
736420 110.154372 110.331564 109.396379 109.750764 1.416453e+06
736421 108.717148 111.522687 108.500579 111.345495 1.430333e+06
736424 111.384873 111.463626 109.888580 110.439849 1.368808e+06
736425 109.750765 110.292188 109.179819 109.691703 1.298621e+06
736426 109.632641 110.449687 108.914025 110.331564 7.994313e+05
736427 109.612948 110.085464 108.362764 108.884495 9.068294e+05
736428 109.297941 110.390625 109.297941 110.085464 7.008929e+05
736431 110.321719 111.079703 109.849203 109.937803 8.732613e+05
736432 110.341403 111.404557 109.622796 111.178149 8.577078e+05
736433 111.650657 112.507088 110.981265 112.448026 1.046319e+06
736434 111.965665 112.802403 111.965665 112.723657 1.053407e+06
736435 112.900849 113.599773 112.605526 113.550549 1.264856e+06
736438 113.206011 114.121503 112.851626 113.944311 1.519126e+06
736439 114.426665 114.977934 113.963996 114.731834 1.443721e+06
736440 115.027149 115.174811 113.747434 114.259319 1.568838e+06
736441 109.957487 111.237210 108.382448 108.539956 3.584496e+06
736442 109.612949 111.621126 109.051842 111.424249 2.112030e+06
736445 111.237211 111.532534 110.223280 110.843449 9.361645e+05
736446 111.601442 112.133019 111.247057 111.778634 1.502096e+06
736447 112.113325 112.861472 110.833602 111.227364 1.227448e+06
736448 110.144525 111.630972 109.790141 111.010795 1.592169e+06
736449 110.646573 110.971426 108.037911 108.667926 2.272488e+06
736452 108.461202 109.514510 107.338987 109.504664 1.368415e+06
736453 108.372602 108.500579 107.319295 107.791810 1.282969e+06
736454 106.817257 107.653996 106.315211 106.896003 1.045531e+06
736455 107.338987 107.821341 106.541625 106.886164 7.975610e+05
736456 106.411895 107.014600 105.898117 107.014600 1.158279e+06
736459 106.846635 106.935563 106.006803 106.155010 1.034083e+06
736460 106.510706 107.528386 105.977163 107.429583 8.077226e+05
736461 107.439458 107.893955 106.095722 106.135245 1.603885e+06
736462 106.935562 107.251735 105.087926 106.204408 1.116782e+06
736463 106.283453 106.777473 105.196610 105.423855 1.529091e+06
736466 105.907999 107.340654 105.809189 106.866400 1.470796e+06
736467 106.530463 106.975078 105.413980 105.730153 1.212325e+06
736468 105.651109 106.500824 104.801394 105.117566 1.972325e+06
736469 104.732231 105.374459 103.704669 104.376536 1.140099e+06
736470 105.107683 105.749911 104.663068 104.939718 8.954606e+05
736473 104.919960 105.552306 104.534626 105.157088 1.467634e+06
736474 105.295414 106.856519 105.186728 106.471183 1.071727e+06
736475 106.965203 107.429582 106.411895 107.024483 7.910248e+05
736476 107.054122 107.696350 106.303210 106.411895 6.774990e+05
736477 106.668788 107.409818 106.016686 107.301133 7.236404e+05
736481 107.350539 107.567908 105.917876 106.392138 1.785882e+06
736482 106.392138 106.915798 105.216369 106.688553 9.864591e+05
736483 106.075965 106.905915 105.611585 106.905915 7.508115e+05
736484 106.777473 106.876275 105.581946 106.382255 1.322689e+06
736487 106.807112 107.567908 106.392137 106.826878 9.247066e+05
736488 106.856518 107.064005 106.085848 106.481058 1.223292e+06
736489 106.767591 109.929322 106.224173 109.623025 1.885180e+06
736490 108.891878 109.168528 108.210129 109.109248 2.657333e+06
736491 108.457138 108.546066 107.469098 107.933478 1.240781e+06
736494 107.637070 107.943360 106.322976 106.402020 1.327827e+06
736495 106.026560 106.560102 105.157087 105.799315 1.207187e+06
736496 106.016685 106.352615 105.226250 105.344818 1.043864e+06
736497 104.356778 105.730153 103.803471 105.680748 8.333129e+05
736498 105.720271 106.965203 105.354693 106.886158 1.785487e+06
736501 107.973000 108.417622 107.024483 107.123285 1.213214e+06
736502 107.350537 107.350537 106.540345 106.767590 1.330198e+06
736503 107.103527 107.103527 106.372380 106.520580 1.204816e+06
736504 108.387975 109.929323 108.131090 109.889800 2.053443e+06
736505 106.797230 106.797230 100.987558 101.501343 3.775795e+06
736508 100.197132 100.256411 96.906957 97.509661 3.404687e+06
736509 98.754586 99.357291 97.242886 99.357291 1.918082e+06
736510 100.720790 101.491460 100.355213 101.264208 1.563870e+06
736511 101.343253 102.904358 100.770188 102.904358 2.166772e+06
736512 102.904358 104.228328 102.825313 103.269928 1.318342e+06
736516 102.677105 102.686987 100.582465 101.422298 1.876090e+06
736517 100.977676 101.787869 100.503421 101.738471 1.434140e+06
736518 102.044761 102.538781 101.303731 101.797751 1.529387e+06
736519 102.933998 105.334936 102.736393 105.048403 1.629377e+06
736522 105.354692 105.759792 105.147204 105.334935 8.815292e+05
736523 106.263695 108.190370 106.026561 107.399935 1.387208e+06
736524 107.795152 108.239775 106.668788 108.160730 1.223687e+06
736525 108.496661 108.674508 107.054123 107.330773 1.342845e+06
736526 107.716108 108.170612 106.846635 107.963118 1.324962e+06
736529 107.696350 108.190370 107.311015 107.992765 8.596935e+05
736530 107.340655 107.676593 106.481059 107.083763 1.407166e+06
736531 107.488862 108.822714 107.182572 108.714030 2.332663e+06
736532 107.696350 108.812832 106.273571 107.291250 2.107588e+06
736533 107.291250 107.291250 106.026560 106.362498 1.688363e+06
736536 105.947522 106.066082 105.127448 105.315170 1.650817e+06
736537 105.789433 105.789433 104.910078 105.483143 2.257474e+06
736538 105.591829 105.591829 104.495104 104.821151 1.607936e+06
736539 104.455581 105.048404 103.566344 104.218453 2.137130e+06
736540 103.734308 103.971443 102.499258 103.457658 2.082492e+06
736543 102.854953 103.803472 102.499259 103.418136 1.622263e+06
736544 103.625624 103.625624 102.113923 102.449861 1.455877e+06
736545 102.884593 103.131603 101.639669 103.082206 2.386907e+06
736546 103.052566 103.566344 102.607943 102.854953 1.266865e+06
736547 103.358856 103.734308 103.101963 103.181008 1.050385e+06
736550 103.597580 103.845540 103.200850 103.627341 1.201018e+06
736551 103.498396 104.341458 103.339706 103.518238 1.036075e+06
736552 103.835626 104.212523 103.240517 103.835626 1.093403e+06
736553 103.964563 104.519990 103.577746 103.885214 1.087155e+06
736554 103.756278 104.014158 102.863621 103.141335 9.696218e+05
736557 103.280191 103.895134 103.171089 103.607500 1.028636e+06
736558 103.657095 104.500157 102.804113 102.804113 1.276596e+06
736559 102.814035 103.181010 102.060235 102.744598 1.232062e+06
736560 102.744597 103.111580 102.516479 102.923129 1.028438e+06
736561 102.377622 104.004238 102.377622 103.875301 1.081005e+06
736564 103.577746 104.420808 103.151255 104.351379 1.139127e+06
736565 105.005998 105.898647 104.738196 105.571345 1.330750e+06
736566 105.412648 106.245796 105.134934 105.521750 1.793642e+06
736567 105.234115 106.315223 105.184528 105.878812 9.066400e+05
736568 106.097018 106.771469 104.549752 104.886973 9.221127e+05
736571 105.045672 107.009508 105.045672 106.721874 1.291077e+06
736572 106.473914 106.821056 105.799463 106.404486 1.028041e+06
736573 106.206122 106.206122 104.569585 105.015910 1.380937e+06
736574 105.154768 105.432488 104.232356 105.115100 9.220135e+05
736575 105.868892 106.196201 105.452322 106.166447 6.572917e+05
736579 106.493755 107.088857 106.136692 106.741715 1.309624e+06
736580 106.364812 106.910326 105.551504 105.858979 1.326981e+06
736581 105.670527 106.007749 104.420808 104.440649 1.033893e+06
736582 103.726523 103.726523 99.937698 100.036881 2.320407e+06
736585 99.659985 102.139583 99.600470 101.921377 1.584165e+06
736586 100.879942 101.117982 99.759167 100.334436 1.413767e+06
736587 100.245167 100.552634 99.144225 99.858350 1.089734e+06
736588 99.868270 100.770839 99.560794 100.413777 1.183264e+06
736589 99.808754 99.997207 98.965693 99.392184 1.970487e+06
736592 100.106309 100.721252 99.709573 100.255087 1.255271e+06
736593 99.590557 101.117982 99.590557 100.433618 1.306649e+06
736594 100.969212 101.703171 100.433618 101.623822 1.134664e+06
736595 102.665256 103.369461 102.080067 102.298273 1.140416e+06
736596 102.268519 102.913215 101.941210 102.427209 1.635542e+06
736599 102.228845 102.447051 101.177498 101.306434 9.208233e+05
736600 101.167577 101.792433 100.721253 101.613902 1.279869e+06
736601 102.080067 103.101660 101.534560 102.724764 1.289688e+06
736602 102.804113 103.111580 101.147743 101.227085 1.152914e+06
736603 101.812274 103.002477 101.812274 102.516479 1.702492e+06
736606 102.427210 103.190930 102.427210 102.595828 1.337297e+06
736607 102.952890 103.230604 100.969212 101.217172 1.547269e+06
736608 101.465132 101.891623 100.721253 100.751007 9.049539e+05
736609 100.572476 101.524641 100.393944 101.356029 1.069996e+06
736610 96.396834 96.704302 91.755027 92.965072 7.078557e+06
736613 93.540334 94.214784 92.459232 93.084088 3.225064e+06
736614 92.488986 92.488986 90.763188 91.546742 4.123769e+06
736615 91.636004 91.804615 90.683839 91.189679 2.153481e+06
736616 90.267269 91.606250 89.572977 91.368211 2.582154e+06
736617 91.993067 92.350130 91.794702 91.844289 2.433179e+06
736620 91.844289 92.122003 91.487227 91.903805 1.903141e+06
736621 92.984905 93.064254 92.032740 92.052574 1.306748e+06
736622 92.062495 92.419557 91.407885 91.804615 2.148224e+06
736623 91.933558 93.699031 91.755027 91.903805 2.391721e+06
736624 90.673919 91.834368 89.741595 91.626083 2.347584e+06
736627 91.993066 92.746865 91.943471 92.479065 1.994687e+06
736628 89.811024 91.308696 88.908446 90.475554 4.303093e+06
736629 90.267268 91.864130 90.267268 91.764940 2.495269e+06
736630 92.270781 92.865882 91.983146 92.588168 2.272006e+06
736631 92.677437 93.758539 91.516981 92.112090 2.045172e+06
736634 92.588169 92.677438 92.052576 92.369963 2.155266e+06
736635 92.488986 92.826207 91.001227 91.983146 2.206048e+06
736636 92.092248 93.222945 91.616171 91.626083 2.208528e+06
736637 92.002986 92.379882 90.911965 91.001227 1.633460e+06
736638 91.269020 92.895643 90.792941 92.052574 1.516125e+06
736641 93.391564 93.649436 92.806375 93.580007 2.049933e+06
736642 93.460481 94.815125 93.131778 94.366893 1.685436e+06
736643 91.996269 95.592052 90.522093 94.914730 3.212797e+06
736644 95.532291 97.823228 95.402798 96.488509 2.815667e+06
736645 95.940672 96.886928 95.113939 95.392835 2.005869e+06
736648 96.020360 96.468583 94.755356 95.671739 1.994415e+06
736649 95.721538 96.159808 95.133866 95.851031 1.771795e+06
736650 95.582089 96.189688 95.482485 95.980516 1.629956e+06
736651 96.388897 96.448666 95.721536 96.229531 1.114294e+06
736652 95.851030 95.851030 94.745402 94.815125 1.271871e+06
736655 95.183664 95.950636 94.934649 95.811187 1.799983e+06
736656 96.070158 96.329136 95.651814 96.239494 1.507639e+06
736657 96.209606 97.305280 95.980517 97.205668 1.085010e+06
736659 97.245511 97.743542 96.966615 97.743542 4.805998e+05
736662 97.534370 97.564251 96.388898 96.966615 1.246273e+06
736663 96.966615 98.062282 96.538308 97.614057 1.462119e+06
736664 98.072244 98.301342 95.452605 95.552209 2.693650e+06
736665 96.040277 96.418785 94.476460 94.864924 2.434475e+06
736666 94.914730 95.123902 93.779220 94.207527 2.076191e+06
736669 94.984454 96.608032 94.854968 95.611970 1.628163e+06
736670 95.602015 95.980517 95.143821 95.841068 1.352652e+06
736671 95.930710 97.823229 95.831105 97.793348 1.575471e+06
736672 97.793347 99.277477 97.494525 99.018507 1.488316e+06
736673 99.088231 99.775509 98.530432 98.908940 1.349564e+06
736676 98.679842 99.456768 97.375003 98.261498 1.522879e+06
736677 97.743542 98.002520 96.269375 96.667801 2.136752e+06
736678 96.687720 97.494527 95.532292 95.791262 1.570590e+06
736679 95.821143 96.737526 95.253388 95.721538 1.677966e+06
736680 95.691657 96.319173 95.402798 95.542246 2.042026e+06
736683 95.681695 96.488510 95.592053 95.841068 1.467597e+06
736684 95.880911 96.020360 95.183664 95.263350 1.413013e+06
736685 95.014334 95.821142 94.675677 95.492448 1.184816e+06
736686 95.562171 95.611970 94.556147 94.625871 1.172863e+06
736687 94.665715 94.665715 93.430600 94.317094 1.809047e+06
736691 94.675678 95.552209 94.506341 95.472522 1.195274e+06
736692 95.960590 96.090083 94.217482 94.297169 1.150551e+06
736693 94.327049 94.944611 94.297168 94.934648 1.145571e+06
736694 95.054177 95.123902 94.087996 94.386818 1.243782e+06
736698 95.054178 95.592052 94.197565 94.874887 1.352752e+06
736699 95.333074 97.135943 95.253387 96.886928 1.329244e+06
736700 96.080120 96.239494 95.024297 95.243432 1.655355e+06
736701 95.392836 95.761381 94.914730 95.213544 1.374366e+06
736704 94.675678 96.080121 94.396774 95.970553 1.448274e+06
736705 95.691657 96.269375 95.293231 96.010396 1.412515e+06
736706 95.870949 96.289292 95.203589 96.249449 1.165293e+06
736707 96.070157 96.598076 95.422723 96.488509 1.023055e+06
736708 96.448666 96.717598 95.791261 95.940672 1.233025e+06
736712 95.412761 95.701620 94.247371 95.592052 2.242733e+06
736713 95.592053 96.468584 95.283276 96.309218 2.135756e+06
736714 97.454683 98.590200 95.621933 97.116026 3.364697e+06
736715 97.643937 99.426889 97.484571 98.610118 2.794451e+06
736718 98.351140 99.914957 98.311297 99.845233 2.331482e+06
736719 100.343264 102.146140 100.044449 101.399094 2.255482e+06
736720 101.797513 101.877200 100.482712 100.681929 2.099200e+06
736721 101.239721 101.598304 100.363190 101.448893 1.585432e+06
736722 101.289527 101.717834 100.821377 101.618222 1.328348e+06
736725 101.747714 101.747714 100.044449 101.628184 1.988239e+06
736726 101.319408 101.458856 98.898978 99.616143 2.561373e+06
736727 99.257560 100.363188 98.610118 100.163972 1.637127e+06
736728 100.114174 100.681929 99.646024 100.183898 1.963636e+06
736729 100.711811 100.751654 100.024525 100.542481 9.179706e+05
736732 99.924920 100.592279 99.157955 99.526493 1.599675e+06
736733 99.646024 100.422951 99.377083 99.616143 1.079831e+06
736734 99.685868 99.875115 99.177874 99.705785 1.025047e+06
736735 99.795434 100.084293 99.397008 99.735665 7.235393e+05
736736 99.805389 100.552435 99.626098 100.144054 1.299064e+06
736739 100.542480 100.851257 100.243658 100.412988 9.770370e+05
736740 100.512600 101.349288 100.074330 101.169997 1.524971e+06
736741 101.000000 101.669998 100.910004 101.500000 8.085000e+05
736742 101.800003 101.989998 100.989998 101.769997 8.785000e+05
736743 101.709999 102.370003 100.739998 102.370003 1.306000e+06
736747 102.500000 103.129997 102.349998 103.000000 2.254700e+06
736748 102.400002 103.339996 102.320000 102.809998 1.950600e+06
736749 103.230003 103.230003 102.190002 102.599998 1.516500e+06
736750 102.129997 103.370003 101.930000 103.309998 1.345100e+06
736753 103.080002 103.400002 102.260002 102.449997 1.149000e+06
736754 102.320000 102.760002 101.959999 102.430000 1.267000e+06
736755 103.449997 103.820000 103.050003 103.290001 1.680000e+06
736756 103.300003 103.300003 102.300003 102.379997 1.398800e+06
736757 102.430000 103.169998 101.680000 102.059998 1.077300e+06
736760 101.949997 101.959999 100.959999 101.199997 9.264000e+05
736761 101.139999 101.250000 100.669998 100.779999 1.184700e+06
736762 100.639999 113.489998 100.339996 106.830002 1.251670e+07
736763 106.000000 106.000000 101.419998 102.930000 5.716200e+06
736764 103.940002 104.519997 101.940002 102.089996 2.997900e+06
