736034 70.467119 71.088645 69.341159 69.395203 3.882312e+05
736035 70.034748 70.665283 69.494288 70.106811 2.959024e+05
736036 69.854597 70.313984 68.773670 69.908641 3.241866e+05
736039 69.458257 69.755511 68.026031 69.016882 7.565554e+05
736040 68.701607 69.908641 68.476415 69.845587 3.501287e+05
736041 69.611386 71.548039 68.935809 70.593227 4.747951e+05
736042 70.088793 70.088793 68.575501 69.530320 3.095040e+05
736043 70.124823 71.629105 69.647417 71.061623 4.983952e+05
736046 71.124677 71.512007 70.169865 71.088645 2.781573e+05
736047 71.016582 72.250638 69.719481 69.935663 5.738796e+05
736048 70.187876 70.908494 69.179020 69.332149 3.458050e+05
736049 70.052761 71.475976 69.170011 69.809556 2.169050e+05
736050 69.557342 71.737200 69.557342 71.052614 4.184070e+05
736053 71.611092 73.277512 71.412922 72.809116 3.304919e+05
736054 72.421786 73.322555 72.412776 73.268503 5.050609e+05
736055 73.043311 74.376452 73.043311 73.872023 6.041454e+05
736056 73.646831 74.853857 73.646831 74.421493 4.108405e+05
736060 74.475536 75.070040 74.196300 74.475536 3.561638e+05
736061 74.286376 75.664550 73.899045 75.475390 3.980496e+05
736062 75.664551 76.349137 74.529581 75.403327 4.274146e+05
736063 75.637528 76.493255 75.061037 75.799667 3.929152e+05
736064 76.168979 76.295085 74.988974 75.214166 2.189768e+05
736067 75.232179 75.979818 74.934930 75.205157 2.577099e+05
736068 75.466381 77.312959 75.232179 76.520278 3.136476e+05
736069 76.880586 78.186704 76.547306 77.267917 4.093993e+05
736070 77.132800 77.898459 76.186998 77.213873 3.526509e+05
736071 77.042725 77.321961 76.412190 76.592341 2.643755e+05
736074 76.817533 77.294939 76.042871 76.358139 2.807695e+05
736075 76.403181 76.484253 75.097069 75.655541 2.977941e+05
736076 75.808677 77.222883 75.583485 77.033716 2.562686e+05
736077 77.186851 78.357847 77.087767 77.583185 3.032887e+05
736078 77.943493 77.997536 76.637381 76.808523 1.649307e+05
736081 77.213873 77.213873 75.754625 76.096922 2.747344e+05
736082 76.250052 76.646385 75.439358 76.385168 3.295011e+05
736083 76.295086 77.249905 76.132948 76.979672 2.611328e+05
736084 76.646385 77.042726 75.646539 75.835699 2.654565e+05
736085 75.970809 77.033716 75.565465 76.781502 3.096842e+05
736088 76.691426 77.565173 76.006840 76.277073 2.356410e+05
736089 76.853565 77.222883 75.025006 75.340273 3.990404e+05
736090 76.069893 76.123944 74.331410 75.061037 3.687746e+05
736091 75.241188 75.916765 73.682863 75.745616 6.299975e+05
736092 75.511421 75.511421 72.097508 74.304388 7.013383e+05
736095 74.394463 74.394463 72.025445 72.385754 6.029744e+05
736096 72.124531 73.682863 71.521018 72.773085 3.837274e+05
736097 73.583777 73.980110 72.079489 72.809116 2.661771e+05
736098 73.180178 73.650787 72.248005 72.429007 2.454423e+05
736099 72.320409 73.578390 71.750239 73.578390 2.852633e+05
736102 73.460732 74.763969 72.736718 74.655363 4.132336e+05
736103 74.420062 74.655364 72.863421 73.696041 2.570266e+05
736104 73.804646 74.429108 73.044423 74.220956 2.492434e+05
736105 74.420062 74.908769 73.858946 74.202852 3.513300e+05
736106 73.958498 74.447211 73.352134 73.904199 9.241192e+05
736110 73.062527 73.904199 72.528559 73.723190 6.672736e+05
736111 73.533136 73.759392 72.555709 73.062527 2.474333e+05
736112 72.745764 72.981071 71.044323 71.913144 4.106995e+05
736113 71.994599 72.356603 70.935717 71.225324 4.236414e+05
736116 71.587334 72.066996 70.790917 71.306780 2.553070e+05
736117 71.306780 72.836271 70.799969 71.922196 2.579316e+05
736118 71.723090 72.465209 71.080525 71.361079 3.030018e+05
736119 70.863320 71.216278 69.985447 70.148351 3.201067e+05
736120 70.094045 70.836164 69.659638 70.148351 3.079794e+05
736123 69.885894 70.456056 69.451480 69.732042 3.072554e+05
736124 70.211703 70.591811 69.397181 69.686788 2.265273e+05
736125 70.428907 70.555609 69.668690 70.456056 2.014582e+05
736126 70.483205 70.971919 69.949245 70.211703 1.896024e+05
736127 69.867789 70.275054 69.379083 69.759191 1.913219e+05
736130 69.333829 69.578182 68.709361 69.035170 3.367591e+05
736131 69.080424 69.487682 68.474060 68.926572 3.521445e+05
736132 69.116626 70.428906 68.989922 70.329353 2.875259e+05
736133 70.655163 71.415386 70.401757 71.361079 2.462568e+05
736134 71.333930 71.523984 70.691365 71.379184 3.744081e+05
736137 72.365656 73.632690 71.695940 73.587436 3.750416e+05
736138 73.297828 74.248105 72.501410 74.085201 2.341295e+05
736139 74.085201 74.429107 73.487882 73.813691 1.943990e+05
736140 74.257158 74.257158 72.637166 72.745764 1.955755e+05
736141 73.162073 73.949446 72.519507 73.858945 2.706924e+05
736144 73.415486 73.587436 71.714038 71.768344 1.959375e+05
736145 72.492358 73.560286 71.750240 71.931248 2.791997e+05
736146 72.899623 72.899623 70.075948 70.293152 3.877119e+05
736147 70.428906 70.899515 69.650586 70.139299 1.947610e+05
736151 68.329253 69.017073 67.496634 67.958190 3.802908e+05
736152 68.030593 68.591710 66.555408 68.437858 4.821964e+05
736153 67.505678 68.302103 66.799762 67.152720 3.775757e+05
736154 67.931041 68.655062 67.686687 67.940093 2.728645e+05
736155 68.754615 70.175502 68.057744 70.121202 3.430038e+05
736158 70.211703 72.401857 70.202651 72.003645 3.216452e+05
736159 72.202751 73.134924 72.076048 72.962974 2.444468e+05
736160 72.881518 73.234476 71.243428 71.406333 2.772991e+05
736161 71.885994 72.148452 71.125771 71.198175 2.059833e+05
736162 71.288676 71.288676 70.121201 70.736618 1.833577e+05
736165 70.736618 70.999069 69.198074 69.243328 3.018252e+05
736166 69.587235 70.637066 68.166350 68.501210 2.388356e+05
736167 68.102997 68.102997 65.351726 66.102897 4.685305e+05
736168 66.311049 66.555408 64.853968 64.935416 2.797427e+05
736169 64.935416 65.894738 63.279221 63.351625 6.241945e+05
736172 62.672857 63.170622 61.650183 63.034868 4.717886e+05
736173 63.016764 63.731734 61.541579 63.279222 5.006588e+05
736174 63.107272 65.885693 62.935315 65.641333 3.114185e+05
736175 65.351726 65.758991 64.482905 64.790609 2.706924e+05
736176 64.591510 65.487481 63.514529 64.338097 2.852633e+05
736179 64.057543 65.034969 61.423929 61.695431 3.604707e+05
736180 61.776887 62.609507 60.057342 60.084491 4.878980e+05
736181 60.763258 61.623027 54.600052 55.016362 1.300790e+06
736182 54.690553 54.690553 52.482299 54.011786 1.413103e+06
736183 51.649676 55.342172 49.142760 49.595272 1.434552e+06
736186 49.468569 54.038935 48.952705 53.731227 1.117885e+06
736187 52.989108 53.568323 51.179062 52.518496 6.355978e+05
736188 52.274140 53.495924 50.780854 52.880507 7.908998e+05
736189 52.825812 52.825812 50.729188 51.285246 3.231536e+05
736190 51.631646 52.379138 49.753803 52.342674 5.360065e+05
736193 52.215054 53.144861 51.157626 52.297096 3.463076e+05
736194 52.470296 52.634381 51.586067 52.041855 3.666357e+05
736195 51.385520 52.342673 49.489444 50.428366 2.267089e+05
736196 49.999924 50.774766 48.185891 48.222355 2.874198e+05
736197 47.866837 47.912419 46.189538 47.146695 5.304459e+05
736200 44.703672 46.918801 43.345422 46.280697 9.776649e+05
736201 47.265197 47.383704 45.250616 45.341776 1.362350e+06
736202 45.350889 46.371853 44.484892 45.925183 5.061068e+05
736203 46.854991 49.298014 46.700021 49.033656 5.047394e+05
736204 49.097467 50.063734 48.422899 49.762916 5.505005e+05
736207 49.252433 50.820344 48.131195 50.136662 5.513210e+05
736208 49.325360 50.364556 47.365471 47.739217 4.277113e+05
736209 47.256083 48.769299 46.782064 48.313511 4.934359e+05
736210 48.541405 49.480327 47.319893 48.076503 3.525063e+05
736211 47.237851 48.295279 46.663557 46.709139 4.253412e+05
736215 47.848609 48.240583 46.745599 47.547787 3.911571e+05
736216 47.711870 48.596099 46.854991 46.927915 3.481307e+05
736217 47.392821 47.611597 46.189537 46.791181 4.203275e+05
736218 46.153077 46.226002 44.630744 44.858638 4.483129e+05
736221 44.566934 45.059185 43.865020 44.594280 3.329074e+05
736222 44.621630 45.834024 44.484892 45.004490 3.165902e+05
736223 45.442046 46.226002 44.885989 46.080150 2.626250e+05
736224 46.043686 47.210505 45.824909 45.906952 2.835912e+05
736225 45.387355 46.226002 44.758365 45.597016 4.612573e+05
736228 45.751982 47.638943 45.287079 46.344507 3.309020e+05
736229 45.952530 46.763832 45.706404 46.271580 3.797624e+05
736230 46.244234 46.581516 44.111146 44.685440 3.969912e+05
736231 44.329926 44.667208 42.980795 44.229652 4.188690e+05
736232 44.749250 44.749250 42.488544 43.682705 3.633541e+05
736235 42.989909 43.518624 40.592464 40.765665 5.802179e+05
736236 40.911517 41.522271 37.976243 38.112980 5.302636e+05
736237 38.432030 39.863204 37.775695 39.416534 6.154047e+05
736238 40.373687 42.825825 39.908782 41.768397 5.446665e+05
736239 40.975328 44.129379 39.945246 43.773864 4.350951e+05
736242 44.320809 46.262466 44.320809 46.143960 2.897899e+05
736243 46.080150 48.568751 46.007225 47.292547 4.203275e+05
736244 48.322625 50.628914 48.158545 48.714603 5.239737e+05
736245 48.769298 49.781148 47.894187 49.343592 2.888783e+05
736246 49.617065 49.617065 47.748335 48.669025 3.060160e+05
736249 48.623446 48.623446 45.788446 47.237851 4.208745e+05
736250 47.055535 48.532290 46.107499 46.900569 6.324512e+05
736251 46.854992 47.447513 45.615248 46.453896 3.731079e+05
736252 46.435664 47.420166 45.059185 47.365471 3.144936e+05
736253 47.894187 48.076503 46.818527 47.310779 2.336368e+05
736256 46.599748 46.836760 45.059186 46.535938 2.248857e+05
736257 46.353621 47.566018 46.107499 46.253351 3.958062e+05
736258 46.052803 46.417431 44.147610 44.430200 2.542385e+05
736259 44.712786 44.940680 42.069219 43.281613 2.772102e+05
736260 43.400118 44.858638 42.670858 43.710054 4.243385e+05
736263 43.345423 43.773864 41.768398 42.014523 3.529621e+05
736264 41.586082 41.750166 38.842241 40.009056 4.866903e+05
736265 40.282528 42.388268 40.027288 41.613431 5.164076e+05
736266 41.549621 42.962562 41.276146 42.087447 3.113942e+05
736267 42.287995 42.287995 40.893286 41.522271 5.840465e+05
736270 41.212335 43.017255 40.993559 41.668123 4.226065e+05
736271 41.759282 42.497657 41.358187 41.403765 5.716491e+05
736272 41.412883 41.613431 37.374603 39.124826 1.156425e+06
736273 38.915165 39.279796 36.317175 36.535955 8.204181e+05
736274 34.685453 36.399216 33.099313 35.998125 1.428621e+06
736277 35.742881 36.736499 34.557834 34.694571 6.337274e+05
736278 34.457560 34.494024 33.372786 34.111160 5.519591e+05
736279 34.083814 34.749264 32.233317 32.716450 5.563346e+05
736280 32.319494 32.411812 31.027086 31.331724 4.491127e+05
736281 31.405577 31.479428 29.993159 31.082473 7.225498e+05
736284 31.460968 33.501130 30.667058 33.454973 7.189495e+05
736285 32.771840 33.778074 31.857919 32.910314 6.292193e+05
736286 33.030321 33.824230 32.605673 32.910314 4.893620e+05
736287 32.799533 33.251878 31.820995 32.033320 3.562437e+05
736288 32.116404 32.374885 31.331724 31.719449 5.163180e+05
736291 31.737912 32.005623 31.174789 31.497891 5.384736e+05
736292 31.820996 32.596443 31.017853 32.088707 6.473131e+05
736293 32.116404 33.316499 31.996394 32.734913 4.770841e+05
736295 32.227181 32.624136 31.968700 32.550282 1.340414e+05
736298 32.845694 33.011857 31.534818 32.061014 5.743842e+05
736299 32.061014 32.402578 30.934768 31.387114 4.190180e+05
736300 30.953232 30.953232 28.959229 29.217710 5.619216e+05
736301 29.430035 30.159323 28.091467 28.340719 4.927777e+05
736302 28.100700 28.156088 25.460489 27.334485 7.472903e+05
736305 27.325253 27.325253 24.048068 24.805053 6.154644e+05
736306 23.918827 25.894368 23.918827 25.506645 6.464822e+05
736307 25.718972 28.294561 25.718972 28.008384 1.219943e+06
736308 27.999152 28.266867 26.697510 27.223706 6.281115e+05
736309 26.549806 26.549806 24.592727 24.694274 6.881163e+05
736312 24.749662 24.869673 22.654112 23.761892 1.080732e+06
736313 24.195772 24.832746 23.337243 23.420327 5.174258e+05
736314 23.309548 24.777357 23.124917 24.426559 5.292421e+05
736315 24.426560 24.426560 22.451019 23.392632 6.113102e+05
736316 22.829510 23.318780 22.238694 22.349471 1.158646e+06
736319 22.367935 22.423325 20.826272 22.247925 7.408282e+05
736320 22.377167 24.758895 22.358703 24.666579 1.054053e+06
736321 25.192776 28.239172 25.017377 27.509882 8.943481e+05
736322 27.685281 28.543811 27.205242 27.260633 3.168252e+05
736326 26.752900 27.620661 26.152852 26.900603 7.008558e+05
736327 27.436030 27.999153 26.023612 26.097463 6.624528e+05
736328 25.432793 25.875907 24.906598 25.506645 7.483057e+05
736329 25.285089 26.706742 25.100461 26.642122 7.947402e+05
736333 26.097462 26.669815 25.525109 26.494418 5.158565e+05
736334 26.494418 26.605195 25.848212 26.457491 5.454896e+05
736335 25.682044 25.682044 22.912593 24.103458 6.583909e+05
736336 23.364936 23.826511 22.220230 22.561797 5.610908e+05
736337 22.792586 24.352708 22.210999 23.364937 6.102024e+05
736340 23.475716 23.512641 21.915592 22.358703 5.095790e+05
736341 22.506405 23.328010 20.189300 21.675571 7.189495e+05
736342 21.675571 22.229461 18.398387 19.183066 6.806388e+05
736343 19.266150 21.675572 18.721492 21.195533 9.009948e+05
736344 19.598484 20.290846 17.059820 18.232221 2.331693e+06
736348 18.583017 18.583017 15.573549 15.628937 1.352046e+06
736349 15.435074 15.638169 13.976497 14.299600 1.243114e+06
736350 14.465767 17.262914 14.299600 17.244450 1.761463e+06
736351 18.056822 19.561559 17.862961 18.666101 1.173324e+06
736354 18.019897 19.543095 17.641406 17.862961 6.700226e+05
736355 18.389157 19.432316 17.392154 19.090751 4.584365e+05
736356 18.739952 20.226225 18.435312 19.219991 7.480288e+05
736357 20.023134 21.029368 19.709262 20.078522 6.254344e+05
736358 20.235458 21.038600 19.893891 20.438550 6.999327e+05
736361 19.801577 20.096985 18.601481 19.700030 4.203104e+05
736362 18.869196 19.866197 18.546092 19.090751 4.414505e+05
736363 19.515400 19.709262 18.195294 19.284612 5.509362e+05
736364 19.506168 21.749423 19.256919 20.937052 6.919013e+05
736365 20.318540 20.937051 19.903122 20.530865 3.917850e+05
736368 19.690798 19.949281 17.521394 17.807572 5.344118e+05
736369 17.345997 17.447542 13.976497 14.530387 2.067211e+06
736370 14.770406 15.278138 14.031886 14.751943 7.969557e+05
736371 14.493461 14.613471 12.905643 13.681089 6.498979e+05
736372 14.142664 15.296602 13.828793 14.382683 4.485588e+05
736376 14.991962 15.684325 14.345757 15.610473 6.384508e+05
736377 15.915113 16.930579 15.721253 16.607476 1.134460e+06
736378 16.893652 16.893652 15.564317 16.238216 1.173601e+06
736379 15.508926 15.748945 14.530387 15.721252 4.888081e+05
736382 16.210520 17.502931 16.173595 17.069051 4.653601e+05
736383 16.681328 17.069051 15.167361 15.195055 6.955938e+05
736384 14.761176 15.490465 14.318063 15.278139 6.969786e+05
736385 15.121203 16.699791 14.899647 16.145901 1.329706e+06
736386 16.413615 17.844498 16.404383 17.521395 1.245607e+06
736389 17.724489 18.398388 16.727487 17.539858 1.125874e+06
736390 17.844498 17.918350 16.764412 17.189062 7.833855e+05
736391 16.810568 18.398388 16.487467 18.315304 7.307659e+05
736392 18.107498 20.119442 18.031932 20.024986 8.194186e+05
736393 20.223345 22.084156 19.817178 20.450043 1.267525e+06
736396 20.440598 21.640208 20.147780 21.583534 5.764740e+05
736397 21.498523 22.244736 19.278772 19.382675 6.891618e+05
736398 19.344891 19.382674 18.116944 18.636460 6.312593e+05
736399 18.523113 19.080412 17.861910 18.712026 4.190134e+05
736400 19.203205 20.157225 19.203205 20.053322 3.012249e+05
736403 19.760505 20.006094 18.636461 19.420457 2.546574e+05
736404 19.127639 19.137085 17.710777 18.268076 3.759408e+05
736405 18.286969 21.763004 18.286969 21.602426 1.025430e+06
736406 21.866906 22.792589 21.092355 22.443097 6.301258e+05
736407 23.038178 23.567142 21.677992 22.594229 1.047722e+06
736410 22.405313 22.547001 20.941223 21.092355 4.159907e+05
736411 20.657852 22.310858 20.100553 21.933026 3.610165e+05
736412 21.507968 21.838570 19.429903 19.807732 3.714068e+05
736413 19.628265 22.036930 19.392121 21.007343 6.024498e+05
736417 20.988451 20.988451 19.760505 20.232792 3.747128e+05
736418 19.760504 20.875102 19.212650 20.535055 5.275450e+05
736419 20.988450 21.507967 20.006093 20.497273 4.436668e+05
736420 20.431151 21.432403 20.289466 21.158475 5.523873e+05
736421 20.346141 20.657851 19.297662 19.864408 4.890063e+05
736424 19.873854 20.393369 19.184313 19.325999 4.944849e+05
736425 18.948169 19.987202 18.948169 19.505469 3.231390e+05
736426 19.892743 20.988450 19.599926 20.686187 3.815137e+05
736427 20.327250 21.385173 20.232792 21.073463 5.833694e+05
736428 21.602426 22.698133 21.375726 21.829124 3.204942e+05
736431 21.876351 22.433650 21.564641 21.914135 3.381578e+05
736432 22.235291 24.700630 21.715774 24.672294 6.591243e+05
736433 24.813979 24.955665 23.822175 24.256680 5.623998e+05
736434 24.332246 24.407812 22.990949 23.642707 4.929736e+05
736435 23.170420 23.567141 22.717022 22.972058 3.708400e+05
736438 22.669794 24.114995 22.018037 23.812729 6.150126e+05
736439 23.982753 26.646454 23.982753 26.438648 6.410829e+05
736440 26.136384 26.731465 25.815228 26.646453 4.916512e+05
736441 26.807032 27.543801 26.211951 27.175417 3.294677e+05
736442 27.921629 28.299459 27.572138 27.846064 5.058198e+05
736445 27.619367 27.808283 25.805783 26.533106 4.405497e+05
736446 27.052620 27.534354 26.457539 27.515462 3.304123e+05
736447 28.138883 29.735213 27.949967 29.669093 4.890063e+05
736448 29.461288 30.538105 29.281818 29.517962 5.534264e+05
736449 29.952465 30.358632 27.893293 28.960662 5.283951e+05
736452 28.611171 29.244034 26.759803 28.044426 6.254030e+05
736453 27.156525 27.354885 25.503519 26.476432 7.219385e+05
736454 26.523660 27.203752 25.815228 26.618117 5.128096e+05
736455 27.147078 27.987749 26.344189 26.674791 4.779548e+05
736456 26.967609 28.431701 25.975806 27.033731 6.054724e+05
736459 26.967609 27.279318 25.106797 25.975806 6.161461e+05
736460 26.410310 28.507267 26.325300 27.080959 7.269448e+05
736461 26.618117 27.846065 25.824675 27.723270 6.004662e+05
736462 28.039831 28.692143 26.524164 27.483447 3.863990e+05
736463 27.003806 28.337210 26.965436 27.608155 4.174798e+05
736466 28.394766 29.114228 27.943902 28.826442 4.839581e+05
736467 28.855222 29.747354 28.548251 29.325270 4.611272e+05
736468 29.402013 30.092697 28.557844 29.162192 7.209009e+05
736469 28.337211 29.814505 27.828790 29.584277 2.944038e+05
736470 29.756947 30.006362 28.903185 29.824097 3.724894e+05
736473 29.286900 29.622647 28.586622 29.143006 3.273072e+05
736474 29.478755 29.478755 27.732861 27.953495 6.776373e+05
736475 28.404360 29.363643 28.126167 28.730516 6.217111e+05
736476 29.296493 29.296493 27.013399 27.195663 7.772108e+05
736477 26.859914 28.471509 26.236380 28.298838 6.761983e+05
736481 28.298838 31.099941 28.020645 30.495596 2.109558e+06
736482 29.900840 31.848185 29.872061 31.186277 1.059720e+06
736483 30.649081 31.800221 30.649081 31.646736 6.147083e+05
736484 31.790625 32.222303 31.186276 31.733071 4.762838e+05
736487 32.442939 33.037693 31.915333 32.088005 5.889995e+05
736488 31.972892 33.958607 31.896148 33.594078 1.046865e+06
736489 34.169647 34.380690 32.510088 32.625201 6.885731e+05
736490 32.001670 32.481311 31.771440 31.934520 9.588989e+05
736491 31.330171 31.550805 29.641834 29.900840 7.524613e+05
736494 29.402013 29.939210 28.500286 28.797665 7.909285e+05
736495 28.529065 29.123822 27.771233 28.490695 8.243116e+05
736496 28.845629 29.881654 28.327617 29.104635 1.015593e+06
736497 28.298838 28.816852 26.821542 27.857569 7.788416e+05
736498 27.521820 29.306083 26.955842 28.653773 4.481097e+06
736501 29.545903 29.843283 28.692143 29.123821 1.199583e+06
736502 29.027893 29.622648 27.819197 29.593870 1.198048e+06
736503 29.843283 30.380481 29.344455 29.689798 8.236401e+05
736504 30.236589 31.665918 30.015955 31.617955 1.025377e+06
736505 29.440385 30.543559 29.334863 30.006362 2.171720e+06
736508 29.680206 29.718576 27.598562 28.135760 1.106628e+06
736509 29.123822 31.147908 29.047079 30.332518 1.128212e+06
736510 30.725821 31.541213 30.188623 31.397320 9.180335e+05
736511 31.090351 31.358949 30.332518 31.234244 8.327533e+05
736512 31.272612 32.884208 30.975238 31.905739 5.041030e+05
736516 30.994422 31.368542 29.593869 30.562745 5.820927e+05
736517 30.284553 30.773789 29.728169 30.725822 6.212314e+05
736518 31.445284 31.800222 29.987176 30.457224 5.820927e+05
736519 30.956050 32.030446 30.562745 31.416506 6.353329e+05
736522 31.886557 32.059224 31.330171 31.502842 5.520672e+05
736523 32.462125 32.788281 31.963298 32.500497 8.120328e+05
736524 32.356603 32.769094 30.850529 31.406915 6.775413e+05
736525 31.406916 32.414162 31.310985 32.030447 5.456400e+05
736526 32.433347 32.452533 31.704290 32.135968 5.167656e+05
736529 32.011260 32.442938 31.435692 32.126377 5.916855e+05
736530 32.174340 32.203118 30.745007 30.965642 6.752390e+05
736531 30.812158 30.917680 30.006362 30.792971 7.465138e+05
736532 30.917680 31.387730 29.862468 29.872061 7.452667e+05
736533 30.073511 30.466817 29.258121 30.226996 5.491893e+05
736536 29.776134 30.083104 29.440385 29.613056 3.912914e+05
736537 29.421198 30.073510 28.931964 28.970336 6.060748e+05
736538 29.085449 29.708982 27.752046 28.097389 5.776800e+05
736539 28.106981 28.260466 27.483448 27.982275 4.679381e+05
736540 27.521820 28.250874 27.473854 27.780824 1.840480e+06
736543 27.752046 28.001461 26.514571 27.224440 1.551064e+06
736544 27.387519 28.346801 26.859914 27.358741 1.032188e+06
736545 27.636931 29.430791 27.214849 29.411605 8.787988e+05
736546 29.190971 29.708982 28.529066 29.286900 6.447339e+05
736547 29.929620 30.447632 27.684898 28.154946 1.054539e+06
736550 28.596215 29.306084 27.982275 28.461916 1.041973e+06
736551 28.663365 28.720923 27.253220 27.867160 7.908326e+05
736552 28.193315 28.193315 27.406705 27.656118 8.778395e+05
736553 27.948467 28.757296 27.597649 28.338264 4.248791e+05
736554 29.010664 29.605104 28.123876 28.747551 7.304801e+05
736557 28.991174 30.209291 28.991174 29.926687 1.049919e+06
736558 29.994904 30.628323 29.634340 30.413934 6.263068e+05
736559 30.423680 30.423680 29.809750 30.228782 4.983559e+05
736560 30.521129 31.875674 30.219036 31.846440 8.864965e+05
736561 31.768479 31.934145 30.901181 31.349447 9.094946e+05
736564 30.755006 30.871946 30.141077 30.365210 6.507666e+05
736565 30.150822 30.832965 30.150822 30.599088 5.670576e+05
736566 30.004648 30.735518 29.644085 29.877963 5.784592e+05
736567 30.433424 30.755006 30.033882 30.443169 6.219216e+05
736568 30.511383 31.086335 30.345719 30.891437 8.311453e+05
736571 30.755007 31.076590 30.199547 31.027866 6.700616e+05
736572 31.135061 31.417665 30.180056 30.404191 7.475338e+05
736573 30.072864 30.374956 29.234798 30.306741 6.900387e+05
736574 30.063118 30.219036 29.429698 29.858473 5.247646e+05
736575 30.326231 30.862201 30.209291 30.355465 4.166933e+05
736579 30.550363 31.310469 30.501638 31.290979 4.533343e+05
736580 31.349446 32.577309 31.349446 32.470115 6.663585e+05
736581 32.616291 33.980580 32.606544 33.785680 7.002709e+05
736582 33.132771 33.629761 32.752720 33.434865 7.843696e+05
736585 32.820933 34.409359 32.012102 33.902622 6.977372e+05
736586 33.230219 33.551804 32.294706 32.781953 9.221630e+05
736587 32.801443 33.542056 32.041339 32.343430 5.252519e+05
736588 32.382411 32.957362 32.236239 32.411644 4.930936e+05
736589 31.924397 32.528586 31.203274 32.392158 9.687438e+05
736592 32.859914 33.532313 32.343430 32.372667 5.151171e+05
736593 32.255725 32.713739 31.593070 31.671031 4.983559e+05
736594 32.401901 32.694248 31.914654 32.392158 5.343147e+05
736595 33.220475 33.278947 32.245982 32.645524 4.309209e+05
736596 32.314197 32.967109 31.671031 31.671031 4.844206e+05
736599 32.323939 32.353177 31.417664 31.612560 6.844841e+05
736600 30.862201 31.593069 30.618578 30.930416 5.259340e+05
736601 31.349446 33.035323 30.988885 32.674758 8.481989e+05
736602 33.006086 33.269199 32.236239 32.723486 8.050289e+05
736603 33.386137 34.545786 32.889147 34.458082 9.312257e+05
736606 34.545787 34.545787 33.561547 33.990326 6.771754e+05
736607 34.331397 34.331397 33.620017 34.214459 7.004657e+05
736608 34.818645 35.237677 34.458083 34.526297 9.933985e+05
736609 35.072014 35.091500 33.668741 33.990326 7.173245e+05
736610 34.126755 34.126755 33.015834 33.395885 5.356790e+05
736613 33.045066 33.727212 31.700264 32.187511 2.044584e+06
736614 32.002359 32.255725 31.066845 31.875674 8.796751e+05
736615 31.710012 33.249709 31.466388 32.684505 6.719131e+05
736616 32.343430 32.830677 31.826950 32.372667 4.533343e+05
736617 32.499348 32.937871 32.245982 32.694248 5.049824e+05
736620 32.742972 32.889148 32.207001 32.548077 2.946868e+05
736621 34.253441 34.253441 32.323940 33.181495 3.353231e+05
736622 33.620017 33.961088 33.035323 33.766193 4.222479e+05
736623 33.278947 34.009817 33.084048 33.912365 1.865180e+05
736624 33.571294 34.185226 33.376395 33.912365 4.082152e+05
736627 33.912364 34.497063 32.840423 34.009816 6.135409e+05
736628 34.058541 34.448335 32.937871 33.132771 5.851832e+05
736629 32.255725 33.425118 32.060830 33.376394 5.195998e+05
736630 33.668741 33.863641 32.323940 32.548077 4.224428e+05
736631 32.401901 32.937871 31.963378 31.963378 3.869713e+05
736634 31.865931 31.914655 30.560110 31.427408 1.784102e+06
736635 32.548077 32.548077 30.014391 30.501638 7.238536e+05
736636 29.916945 30.404191 28.796275 29.575871 7.979151e+05
736637 30.355465 30.452915 29.478421 30.404191 5.959026e+05
736638 30.160568 30.355465 28.893725 29.819494 8.339713e+05
736641 29.137348 31.573583 28.260304 31.183784 8.760694e+05
736642 30.355465 32.596800 30.355465 31.329960 6.159772e+05
736643 31.086334 32.840423 30.949905 32.304453 8.130197e+05
736644 32.791700 33.230218 31.865931 32.548077 7.691675e+05
736645 32.255726 32.694249 31.427408 32.499349 7.278490e+05
736648 32.645525 32.645525 31.183785 31.768479 6.369288e+05
736649 32.548077 33.035324 32.304454 32.742972 8.153585e+05
736650 32.742976 33.434377 32.298500 32.693586 4.501048e+05
736651 33.434376 34.027012 32.742975 33.977627 5.713970e+05
736652 34.027013 34.817189 33.582537 33.928238 5.701130e+05
736655 34.767803 35.311049 34.125782 35.212279 6.185113e+05
736656 35.607366 35.607366 33.780083 34.520874 7.692377e+05
736657 34.027013 34.866574 34.027013 34.718419 6.090292e+05
736659 34.570259 35.261665 34.422099 35.162890 2.741915e+05
736662 35.311049 35.538225 33.631921 33.977627 6.822193e+05
736663 33.335606 33.434376 32.249114 32.594815 6.180174e+05
736664 34.175169 36.002457 34.076398 35.607366 1.692362e+06
736665 36.545702 36.595087 35.459210 35.953071 9.126548e+05
736666 35.557981 36.990178 35.557981 36.397542 7.763492e+05
736669 36.990177 37.730969 36.842017 37.286493 8.622810e+05
736670 36.891403 37.928515 36.348157 37.582809 6.536742e+05
736671 37.484038 38.471760 37.434653 38.422375 7.942270e+05
736672 38.619916 39.854569 38.372986 39.558253 8.563547e+05
736673 40.249659 40.249659 38.116180 38.866847 9.653992e+05
736676 40.150889 40.150889 38.471761 38.619916 1.035725e+06
736677 39.064392 39.657028 38.274215 39.311322 6.055722e+05
736678 39.015007 39.805183 38.155690 38.718691 1.159585e+06
736679 38.619916 39.854568 38.027285 39.261937 8.022276e+05
736680 39.558252 40.792904 39.360707 40.644749 1.706190e+06
736683 40.694134 41.138610 40.200274 41.039835 5.338636e+05
736684 41.484310 41.681855 40.249658 40.397818 6.267094e+05
736685 40.496589 41.434926 40.101498 41.138610 7.891896e+05
736686 41.385541 41.434926 40.743520 41.286766 5.630014e+05
736687 41.237381 42.175718 40.941065 41.830012 6.366854e+05
736691 42.126332 42.422648 41.583081 42.027557 3.742477e+05
736692 42.126332 42.669578 41.237381 41.336151 7.071100e+05
736693 41.237381 41.533696 40.941065 41.286766 4.407214e+05
736694 41.336150 41.484310 40.743519 41.237380 5.885833e+05
736698 42.027556 42.521417 40.694134 41.780626 5.798914e+05
736699 41.928786 42.422647 41.336150 42.274487 3.325659e+05
736700 42.323873 42.323873 40.792905 41.336151 5.180600e+05
736701 41.583080 41.632470 40.842289 40.941064 5.154919e+05
736704 40.447203 40.743518 39.657027 39.903957 6.824169e+05
736705 39.903957 40.002727 38.768075 39.163166 8.099318e+05
736706 39.459482 39.854568 39.163167 39.854568 9.226308e+05
736707 40.200274 40.545974 38.965621 39.261937 8.029190e+05
736708 39.163167 40.002729 39.163167 39.607638 6.274008e+05
736712 40.002728 40.743519 39.805183 40.644749 6.043869e+05
736713 40.101497 40.555852 39.558251 39.903957 5.187514e+05
736714 40.052113 40.299044 39.854568 40.002728 3.656546e+05
736715 40.397819 40.595359 39.903958 40.002728 3.782974e+05
736718 39.558253 39.953343 38.916236 39.261937 4.924780e+05
736719 39.607638 40.496589 39.084147 40.348429 5.242827e+05
736720 40.348429 41.138610 40.101499 40.842290 6.260180e+05
736721 41.237381 41.632472 40.891680 41.286766 4.327209e+05
736722 40.891680 41.089220 39.666903 40.299044 3.363192e+05
736725 40.101499 40.101499 38.619916 39.212552 6.252278e+05
736726 39.410097 39.410097 38.718691 39.212552 5.155907e+05
736727 39.558252 40.052113 38.916236 39.706412 4.416104e+05
736728 39.953343 40.397819 39.064392 40.348429 5.540131e+05
736729 40.348429 41.731241 40.101498 41.583081 6.310554e+05
736732 41.533696 41.879401 40.299044 40.447204 3.921255e+05
736733 40.002728 40.249658 38.718691 38.817461 6.274996e+05
736734 38.422376 39.015007 37.879125 38.866847 5.132202e+05
736735 39.163167 39.657028 39.064392 39.558253 3.595307e+05
736736 40.299044 40.299044 39.212552 39.607638 2.672775e+05
736739 39.311322 39.834818 38.866847 39.607638 3.649632e+05
736740 39.657028 40.496589 39.212552 40.249659 4.161271e+05
736741 39.903958 40.101498 39.508867 40.002728 3.578516e+05
736742 40.101498 40.496589 39.212552 39.410097 5.785086e+05
736743 39.212552 39.657028 38.718692 39.558253 5.570750e+05
736747 40.249659 40.348429 39.163167 39.212552 3.097495e+05
736748 38.471761 39.064392 37.977900 38.175445 4.064475e+05
736749 38.916236 38.965621 37.829739 38.817461 5.735700e+05
736750 37.780354 38.076670 35.637000 35.804911 1.523067e+06
736753 36.101226 36.200002 35.113505 35.261665 1.205218e+06
736754 35.014735 35.508595 34.669029 34.718419 1.122249e+06
736755 35.212280 36.150612 34.817190 35.656751 9.925615e+05
736756 34.965349 36.693862 34.965349 36.200001 7.331858e+05
736757 36.150002 36.950001 35.700001 36.450001 7.287000e+05
736760 36.400002 36.750000 35.950001 36.000000 7.213000e+05
736761 36.000000 36.000000 34.750000 35.250000 8.864000e+05
736762 35.250000 35.400002 33.500000 33.650002 6.772000e+05
736763 33.450001 33.599998 32.480000 33.500000 9.208000e+05
736764 33.849998 34.049999 32.799999 33.900002 1.904200e+06
